time_s,v_diff,v_hpf,v_ia,v_notch,v_lpf,v_adc_in,adc_code,adc_signed
0,-0.000145,-0.000144780635400908,-0.0291009077155824,-0.0282983096219613,-0.0090699710326799,-0.0090699710326799,2036,-12
0.001,-0.000145,-0.000144342569938273,-0.0290128565575928,-0.0262288764798176,-0.0207325492494809,-0.0207325492494809,2021,-27
0.002,-0.000145,-0.000143905829938459,-0.0289250718176303,-0.0246930108321169,-0.0237635713049208,-0.0237635713049208,2018,-30
0.003,-0.000145,-0.000143470411390991,-0.0288375526895891,-0.0238490096833065,-0.024088852684915,-0.024088852684915,2017,-31
0.004,-0.000145,-0.000143036310297523,-0.0287502983698021,-0.0237490056060856,-0.0239030545822105,-0.0239030545822105,2017,-31
0.005,-0.000145,-0.000142603522671812,-0.0286633080570342,-0.0243397004287572,-0.0239936305022175,-0.0239936305022175,2017,-31
0.006,-0.000145,-0.000142172044539673,-0.0285765809524744,-0.0254774436951199,-0.0245801315020387,-0.0245801315020387,2016,-32
0.007,-0.000145,-0.000141741871938948,-0.0284901162597286,-0.0269545353952627,-0.0256287584527775,-0.0256287584527775,2015,-33
0.008,-0.000145,-0.000141313000919466,-0.0284039131848126,-0.0285323303727559,-0.0269843189856184,-0.0269843189856184,2014,-34
0.009,-0.000145,-0.000140885427543007,-0.0283179709361445,-0.0299761200550986,-0.0284393870806882,-0.0284393870806882,2012,-36
0.01,-0.000145,-0.000140459147883271,-0.0282322887245374,-0.0310868961055634,-0.0297804902855874,-0.0297804902855874,2010,-38
0.011,-0.000145,-0.000140034158025833,-0.0281468657631924,-0.0317258885887016,-0.0308227351968343,-0.0308227351968343,2009,-39
0.012,-0.000145,-0.000139610454068115,-0.028061701267691,-0.0318290619056049,-0.0314347480496029,-0.0314347480496029,2008,-40
0.013,-0.000145,-0.000139188032119346,-0.0279767944559885,-0.0314103316320469,-0.0315533049208997,-0.0315533049208997,2008,-40
0.014,-0.000145,-0.000138766888300528,-0.0278921445484061,-0.0305538973183607,-0.0311871571992998,-0.0311871571992998,2008,-40
0.015,-0.000145,-0.000138347018744399,-0.0278077507676242,-0.0293975435560902,-0.0304105951723291,-0.0304105951723291,2009,-39
0.016,-0.000145,-0.000137928419595399,-0.0277236123386753,-0.0281098580841063,-0.0293484834080786,-0.0293484834080786,2011,-37
0.017,-0.000145,-0.000137511087009634,-0.0276397284889365,-0.0268649283368725,-0.0281554768711625,-0.0281554768711625,2012,-36
0.018,-0.000145,-0.00013709501715484,-0.0275560984481227,-0.0258181587536933,-0.0269926990981627,-0.0269926990981627,2014,-34
0.019,-0.000145,-0.000136680206210347,-0.0274727214482797,-0.0250864286536813,-0.0260052597427298,-0.0260052597427298,2015,-33
0.02,-0.000139996400287977,-0.000131270620397403,-0.026385394699878,-0.0237584731807414,-0.0249906387007308,-0.0249906387007308,2016,-32
0.021,-0.000130997120230382,-0.00012188776702553,-0.0244994411721316,-0.0221109230089144,-0.0236727280559212,-0.0236727280559212,2018,-30
0.022,-0.000121997840172786,-0.000112533303527703,-0.0226191940090683,-0.0209170109817146,-0.0222889068632246,-0.0222889068632246,2019,-29
0.023,-0.000124200863930886,-0.00011439250031029,-0.0229928925623683,-0.0222356763944348,-0.0218321355971029,-0.0218321355971029,2020,-28
0.024,-0.000129600431965443,-0.000119437780041284,-0.0240069937882982,-0.0241829470504652,-0.0227149408056587,-0.0227149408056587,2019,-29
0.025,-0.000135,-0.000124467794175513,-0.0250180266292781,-0.0259591501475869,-0.0242252663142275,-0.0242252663142275,2017,-31
0.026,-0.000138599712023038,-0.000127685455819771,-0.0256647766197739,-0.027121186521209,-0.0257091778656188,-0.0257091778656188,2015,-33
0.027,-0.000142199424046076,-0.000130893381725316,-0.0263095697267885,-0.0279964489850766,-0.0268948444601855,-0.0268948444601855,2014,-34
0.028,-0.000145399568034557,-0.000133692637805417,-0.0268722201988888,-0.0284967019588585,-0.0277613386985073,-0.0277613386985073,2013,-35
0.029,-0.000147199424046076,-0.00013508525458604,-0.0271521361717941,-0.0284631497912978,-0.0282219715040015,-0.0282219715040015,2012,-36
0.03,-0.000148999280057595,-0.000136473657700156,-0.0274312051977313,-0.0282522063753855,-0.0283089629010144,-0.0283089629010144,2012,-36
0.031,-0.00015159884767735,-0.000138656361654222,-0.0278699286924986,-0.0280999921231319,-0.0282237938934787,-0.0282237938934787,2012,-36
0.032,-0.000155199855959669,-0.000141832386984059,-0.0285083097837958,-0.0281217687253926,-0.0281514134644938,-0.0281514134644938,2012,-36
0.033,-0.000158800864241988,-0.000144998802554955,-0.0291447593135459,-0.0281928473446688,-0.0281551920353508,-0.0281551920353508,2012,-36
0.034,-0.000158799496040317,-0.000144558710848128,-0.0290563008804737,-0.0276837586277934,-0.0280161605936074,-0.0280161605936074,2012,-36
0.035,-0.000156999640028798,-0.000142324183784135,-0.0286071609406112,-0.0270490497261428,-0.0275996500701207,-0.0275996500701207,2013,-35
0.036,-0.000155199784017279,-0.000140096417770261,-0.0281593799718225,-0.026675412914042,-0.0271269457431795,-0.0271269457431795,2013,-35
0.037,-0.00015660007199424,-0.000141070694970343,-0.028355209689039,-0.0271579472543454,-0.0269921600643425,-0.0269921600643425,2014,-34
0.038,-0.00015839992800576,-0.00014244098782611,-0.0286306385530482,-0.0278457033159812,-0.0273188685392276,-0.0273188685392276,2013,-35
0.039,-0.000160599352051836,-0.000144206098105623,-0.0289854257192303,-0.0286669522313487,-0.0279198039459182,-0.0279198039459182,2012,-36
0.04,-0.000165998920086393,-0.000149161170278992,-0.0299813952260774,-0.0300944413019792,-0.0288562737028065,-0.0288562737028065,2011,-37
0.041,-0.00017139848812095,-0.00015410124979828,-0.0309743512094544,-0.0313979595008452,-0.0300677651762717,-0.0300677651762717,2010,-38
0.042,-0.000175599567879006,-0.00015782970689468,-0.0317237710858307,-0.0323103742338016,-0.0312128944654074,-0.0312128944654074,2008,-40
0.043,-0.000177400072020166,-0.000159149938845325,-0.0319891377079103,-0.0326044736551897,-0.0320106697725153,-0.0320106697725153,2007,-41
0.044,-0.000179200576161325,-0.000160466176145589,-0.0322537014052634,-0.0327919971051229,-0.0324514169569005,-0.0324514169569005,2007,-41
0.045,-0.000181000719942405,-0.000161778071067255,-0.0325173922845182,-0.0328912824465918,-0.0327015597895651,-0.0327015597895651,2006,-42
0.046,-0.000182800575953924,-0.000163085709229839,-0.0327802275551976,-0.0329313274485923,-0.0328360118139414,-0.0328360118139414,2006,-42
0.047,-0.000184600431965443,-0.000164389390847302,-0.0330422675603077,-0.032947000464403,-0.0329021349822467,-0.0329021349822467,2006,-42
0.048,-0.000180799136069114,-0.000160096449737966,-0.0321793863973311,-0.0318806289671534,-0.0325891091704079,-0.0325891091704079,2007,-41
0.049,-0.000175399568034557,-0.000154220643683073,-0.0309983493802978,-0.03062456562,-0.0317323707878238,-0.0317323707878238,2008,-40
0.05,-0.00017,-0.0001483626161639,-0.0298208858489438,-0.0295159459664456,-0.0306669124579514,-0.0306669124579514,2009,-39
0.051,-0.000164600431965443,-0.000142522313387598,-0.0286469849909071,-0.0285344497991833,-0.0296145313200431,-0.0296145313200431,2010,-38
0.052,-0.000159200863930886,-0.000136699681724083,-0.0274766360265407,-0.0276443850351718,-0.0286368942028216,-0.0286368942028216,2011,-37
0.053,-0.000156598272138229,-0.000133687412515912,-0.0268711699156982,-0.027346558000032,-0.0279052129943474,-0.0279052129943474,2012,-36
0.054,-0.000163797696184305,-0.000140471444354608,-0.0282347603152763,-0.0289205881563781,-0.0280515976634869,-0.0280515976634869,2012,-36
0.055,-0.000170997120230382,-0.000147234949621932,-0.0295942248740084,-0.0302804983075126,-0.0290445114894218,-0.0290445114894218,2011,-37
0.056,-0.000175799423838675,-0.000151584496493687,-0.030468483795231,-0.03097425585552,-0.0300591689202516,-0.0300591689202516,2010,-38
0.057,-0.000177599927979834,-0.000152923624693653,-0.0307376485634243,-0.0309592104697905,-0.0306409408705104,-0.0306409408705104,2009,-39
0.058,-0.000179400432120994,-0.000154258701068507,-0.0310059989147698,-0.0309142266510794,-0.0308305419537954,-0.0308305419537954,2009,-39
0.059,-0.000182401007919366,-0.00015678799399557,-0.0315143867931096,-0.03111852159448,-0.0309496651390417,-0.0309496651390417,2009,-39
0.06,-0.000186000719942405,-0.000159907863809812,-0.0321414806257722,-0.0314772001798004,-0.0311728675416689,-0.0311728675416689,2008,-40
0.061,-0.000189600431965443,-0.000163018293775902,-0.0327666770489564,-0.031898222840721,-0.0315028957266637,-0.0315028957266637,2008,-40
0.062,-0.000186799856011519,-0.000159728707214418,-0.0321054701500979,-0.0311557828219461,-0.031518348998888,-0.031518348998888,2008,-40
0.063,-0.000183200143988481,-0.000155651146927528,-0.0312858805324331,-0.030443953882795,-0.0310577844818896,-0.0310577844818896,2008,-40
0.064,-0.000179001079913607,-0.000150987478874167,-0.0303484832537075,-0.0297852102564438,-0.0304531675509471,-0.0304531675509471,2009,-39
0.065,-0.000170001799856012,-0.000141544967836706,-0.0284505385351779,-0.0283180709809244,-0.0295547528507785,-0.0295547528507785,2010,-38
0.066,-0.000161002519798416,-0.0001321310271806,-0.0265583364633005,-0.0269831420945516,-0.0283341462398551,-0.0283341462398551,2012,-36
0.067,-0.000152601728483976,-0.000123343153773804,-0.0247919739085346,-0.0258113189262094,-0.027092533592756,-0.027092533592756,2013,-35
0.068,-0.000145399711919337,-0.00011577883117137,-0.0232715450654454,-0.0248261190825739,-0.0259554729591891,-0.0259554729591891,2015,-33
0.069,-0.000138197695354699,-0.000108237396080593,-0.0217557166121991,-0.0237059612299524,-0.0248725032137238,-0.0248725032137238,2016,-32
0.07,-0.000139002879769618,-0.000108713866461357,-0.0218514871587328,-0.0239694688903105,-0.0242091774742415,-0.0242091774742415,2017,-31
0.071,-0.000146202303815695,-0.000115573461223063,-0.0232302657058358,-0.0251718456752682,-0.0244408953002337,-0.0244408953002337,2017,-31
0.072,-0.000153401727861771,-0.000122412300781254,-0.0246048724570321,-0.0260160490768626,-0.0251800312462797,-0.0251800312462797,2016,-32
0.073,-0.000164802015838733,-0.000133424956550138,-0.0268184162665778,-0.0274208707970026,-0.0261662034838777,-0.0261662034838777,2015,-33
0.074,-0.000177401007919366,-0.000145601181754553,-0.0292658375326651,-0.0288669158381496,-0.0274339533772741,-0.0274339533772741,2013,-35
0.075,-0.00019,-0.000157740565127789,-0.0317058535906855,-0.0302532679718927,-0.0287968626899325,-0.0287968626899325,2011,-37
0.076,-0.000195399568034557,-0.000162654685812437,-0.0326935918482998,-0.030323222443138,-0.0297528771242805,-0.0297528771242805,2010,-38
0.077,-0.000200799136069114,-0.000167553937750686,-0.0336783414878879,-0.0307088254005207,-0.0302420737893759,-0.0302420737893759,2009,-39
0.078,-0.000207397408207343,-0.000173635256564195,-0.0349006865694033,-0.0317025024814075,-0.0308597597839837,-0.0308597597839837,2009,-39
0.079,-0.000218196544276458,-0.000183892683633011,-0.0369624294102352,-0.0338757048920762,-0.0320965186960082,-0.0320965186960082,2007,-41
0.08,-0.000228995680345572,-0.000194119074613873,-0.0390179339973884,-0.0363036389449665,-0.0340152066591577,-0.0340152066591577,2005,-43
0.081,-0.00023340115232265,-0.000197930532035422,-0.0397840369391197,-0.0376688223897259,-0.0359197092285093,-0.0359197092285093,2002,-46
0.082,-0.000229800144040331,-0.000193736089478082,-0.0389409539850945,-0.0376570911388989,-0.0370371755976138,-0.0370371755976138,2001,-47
0.083,-0.000226199135758012,-0.000189554338123639,-0.0381004219628515,-0.0378240499803339,-0.0374880698040257,-0.0374880698040257,2000,-48
0.084,-0.000229802015838733,-0.000192578229465588,-0.0387082241225833,-0.0394247921739221,-0.0382165001072964,-0.0382165001072964,2000,-48
0.085,-0.000237001439884809,-0.00019918407426359,-0.0400359989269816,-0.0415093679593213,-0.0396591795684023,-0.0396591795684023,1998,-50
0.086,-0.000244200863930886,-0.000205769931634064,-0.0413597562584469,-0.0432346032092991,-0.0413981577837279,-0.0413981577837279,1996,-52
0.087,-0.00024660007199424,-0.000207542908122031,-0.0417161245325282,-0.043635447645401,-0.0427038421706651,-0.0427038421706651,1994,-54
0.088,-0.00024839992800576,-0.000208712074765539,-0.0419511270278732,-0.0436264915618636,-0.0432981546276954,-0.0432981546276954,1993,-55
0.089,-0.000250399568034557,-0.000210077185611946,-0.0422255143080012,-0.0434276861448596,-0.0434449073364558,-0.0434449073364558,1993,-55
0.09,-0.000253999280057595,-0.0002130358173275,-0.0428201992828276,-0.0433908668519325,-0.0434220670556483,-0.0434220670556483,1993,-55
0.091,-0.000257598992080634,-0.000215985497056018,-0.0434130849082596,-0.0432770835358259,-0.0433655979134886,-0.0433655979134886,1993,-55
0.092,-0.000261798703637018,-0.000219525343702163,-0.0441245940841348,-0.0433056436878031,-0.0433180118226719,-0.0433180118226719,1993,-55
0.093,-0.000267200216060497,-0.000224254462479911,-0.0450751469584622,-0.0436763889000518,-0.0434289121247588,-0.0434289121247588,1993,-55
0.094,-0.000272601728483976,-0.000228969272274973,-0.0460228237272697,-0.0442079440263809,-0.0437579213160777,-0.0437579213160777,1993,-55
0.095,-0.000275,-0.0002306711189558,-0.0463648949101158,-0.0443591377266837,-0.0440948569317537,-0.0440948569317537,1992,-56
0.096,-0.000275,-0.000229973173058808,-0.0462246077848204,-0.0443040249475044,-0.0442466033454334,-0.0442466033454334,1992,-56
0.097,-0.000275,-0.000229277338949704,-0.0460847451288905,-0.0445157027733663,-0.0443512575217167,-0.0443512575217167,1992,-56
0.098,-0.000275,-0.000228583610238812,-0.0459453056580013,-0.0449264224645161,-0.0445883120712196,-0.0445883120712196,1992,-56
0.099,-0.000275,-0.00022789198055579,-0.0458062880917139,-0.0454463210806429,-0.0449716836746555,-0.0449716836746555,1991,-57
0.1,-0.000275,-0.00022720244354957,-0.0456676911534636,-0.04597733014657,-0.0454461336355215,-0.0454461336355215,1991,-57
0.101,-0.000271400287976962,-0.000222920726723089,-0.0448070660713408,-0.045724653536063,-0.0457056581264157,-0.0457056581264157,1990,-58
0.102,-0.000267800575953924,-0.000218651965166884,-0.0439490449985436,-0.0453678832217795,-0.0456034852113552,-0.0456034852113552,1990,-58
0.103,-0.000264200863930885,-0.000214396119681953,-0.0430936200560726,-0.044846254500001,-0.0452852696020828,-0.0452852696020828,1991,-57
0.104,-0.000260601151907847,-0.0002101531511879,-0.042240783388768,-0.0441263677368956,-0.0447731167279581,-0.0447731167279581,1991,-57
0.105,-0.000257001439884809,-0.000205923020722574,-0.0413905271652373,-0.0432047244155088,-0.0440631355409351,-0.0440631355409351,1992,-56
0.106,-0.00025659884767735,-0.00020489797246483,-0.0411844924654309,-0.0427299441962497,-0.0433606988517967,-0.0433606988517967,1993,-55
0.107,-0.000260199855959669,-0.000207873569320202,-0.0417825874333607,-0.0428611709140632,-0.0429984287898478,-0.0429984287898478,1994,-54
0.108,-0.000263800864241988,-0.000210840162856799,-0.0423788727342165,-0.0428336241702801,-0.0429016138874913,-0.0429016138874913,1994,-54
0.109,-0.000267401007919366,-0.000213796917019214,-0.0429731803208619,-0.0427440850770644,-0.0428293323081201,-0.0428293323081201,1994,-54
0.11,-0.000271000719942405,-0.000216744293874231,-0.0435656030687205,-0.0426906253067082,-0.0427575521054061,-0.0427575521054061,1994,-54
0.111,-0.000274600431965443,-0.000219682752796254,-0.044156233312047,-0.0427588760577898,-0.0427365255521003,-0.0427365255521003,1994,-54
0.112,-0.000279800215982721,-0.000224209972078873,-0.0450662043878535,-0.0433234532927053,-0.0429318070412973,-0.0429318070412973,1994,-54
0.113,-0.000285199784017279,-0.000228922975042035,-0.046013517983449,-0.0441205910734116,-0.0434383552090929,-0.0434383552090929,1993,-55
0.114,-0.00029,-0.000233023272467923,-0.0468376777660525,-0.0449975254372003,-0.044156754597691,-0.044156754597691,1992,-56
0.115,-0.00029,-0.00023231820961628,-0.0466959601328724,-0.0451216642327971,-0.0447354983395549,-0.0447354983395549,1991,-57
0.116,-0.00029,-0.000231615280086428,-0.046554671297372,-0.0454520437215121,-0.0450889314405803,-0.0450889314405803,1991,-57
0.117,-0.00029,-0.000230914477423534,-0.0464138099621303,-0.0459089881690768,-0.0454681522769356,-0.0454681522769356,1991,-57
0.118,-0.00029,-0.000230215795192298,-0.0462733748336519,-0.0464014889797797,-0.0459085922112257,-0.0459085922112257,1990,-58
0.119,-0.00029,-0.00022951922697689,-0.0461333646223549,-0.0468404722554387,-0.0463652514460869,-0.0463652514460869,1989,-59
0.12,-0.00029,-0.000228824766380893,-0.0459937780425596,-0.0471508206322314,-0.0467693508036178,-0.0467693508036178,1989,-59
0.121,-0.00029,-0.000228132407027245,-0.0458546138124762,-0.0472805996855605,-0.0470554785954628,-0.0470554785954628,1989,-59
0.122,-0.00029,-0.000227442142558176,-0.0457158706541934,-0.0472064356180072,-0.0471760164520788,-0.0471760164520788,1988,-60
0.123,-0.000288599712023038,-0.000225355797096888,-0.0452965152164745,-0.0466613132368957,-0.0470207972055228,-0.0470207972055228,1989,-59
0.124,-0.000286799856011519,-0.000222876800785547,-0.044798236957895,-0.0458933759577889,-0.0465442250207917,-0.0465442250207917,1989,-59
0.125,-0.000285,-0.000220405305219475,-0.0443014663491145,-0.0450341474529276,-0.0458516203314113,-0.0458516203314113,1990,-58
0.126,-0.000288599712023038,-0.000223332686951346,-0.0448898700772205,-0.0451936626690559,-0.0453787259272962,-0.0453787259272962,1991,-57
0.127,-0.000292199424046076,-0.000226251211249836,-0.0454764934612171,-0.0452981561608775,-0.0452935871373414,-0.0452935871373414,1991,-57
0.128,-0.000295799136069114,-0.000229160904915049,-0.0460613418879249,-0.0454175496867136,-0.0453347831542992,-0.0453347831542992,1991,-57
0.129,-0.000299398848092153,-0.000232061794665995,-0.0466444207278649,-0.045614315024766,-0.045450904437274,-0.045450904437274,1991,-57
0.13,-0.000302998560115191,-0.000234953907140841,-0.047225735335309,-0.0459354938429815,-0.0456585967427867,-0.0456585967427867,1990,-58
0.131,-0.000301802304645301,-0.00023304855702827,-0.0468427599626823,-0.0454714306155702,-0.0456873566700233,-0.0456873566700233,1990,-58
0.132,-0.000294600288080663,-0.000225152296745793,-0.0452556116459043,-0.0440580226151949,-0.0450959271478177,-0.0450959271478177,1991,-57
0.133,-0.000287398271516024,-0.000217279928324987,-0.0436732655933223,-0.0429174030710191,-0.0440650205422339,-0.0440650205422339,1992,-56
0.134,-0.000282598992080634,-0.000211830481601828,-0.0425779268019674,-0.0424379696308595,-0.0431757037529425,-0.0431757037529425,1993,-55
0.135,-0.000278999280057595,-0.000207595276006656,-0.0417266504773378,-0.0422504489478806,-0.0426426944814217,-0.0426426944814217,1994,-54
0.136,-0.000275399568034557,-0.000203372884951862,-0.0408779498753243,-0.0420077681647317,-0.0423134727345528,-0.0423134727345528,1994,-54
0.137,-0.000275,-0.000202358572285128,-0.0406740730293107,-0.0422557765401623,-0.0421969981306388,-0.0421969981306388,1995,-53
0.138,-0.000275,-0.000201746292187442,-0.0405510047296758,-0.042347999039363,-0.0422642350916157,-0.0422642350916157,1995,-53
0.139,-0.000275199784017279,-0.000201335346449211,-0.0404684046362913,-0.0422273294509306,-0.0422792537797766,-0.0422792537797766,1995,-53
0.14,-0.000276999640028798,-0.000202523295427583,-0.0407071823809442,-0.0421878783698687,-0.0422333243763298,-0.0422333243763298,1995,-53
0.141,-0.000278799496040317,-0.000203707650006626,-0.0409452376513319,-0.0419484193451615,-0.0421274426334999,-0.0421274426334999,1995,-53
0.142,-0.000280599567879006,-0.000204888636562635,-0.0411826159490896,-0.0415890084208739,-0.0418974883062677,-0.0418974883062677,1995,-53
0.143,-0.000282400072020166,-0.000206066481434102,-0.0414193627682546,-0.0412000691246409,-0.0415750847591457,-0.0415750847591457,1995,-53
0.144,-0.000284200576161325,-0.000207240762478425,-0.0416553932581634,-0.0408691555234492,-0.0412286280699786,-0.0412286280699786,1996,-52
0.145,-0.000289002879769618,-0.000211408748645621,-0.0424931584777698,-0.0412552401633433,-0.0411219420272976,-0.0411219420272976,1996,-52
0.146,-0.000296202303815695,-0.000217957617591338,-0.043809481135859,-0.0422471891905932,-0.0415253219309326,-0.0415253219309326,1995,-53
0.147,-0.000303401727861771,-0.000224486671502424,-0.0451218209719872,-0.0433752515425695,-0.0423496157999382,-0.0423496157999382,1994,-54
0.148,-0.000300799136069114,-0.000221208783565725,-0.0444629654967107,-0.0427415682859792,-0.0428039710014357,-0.0428039710014357,1994,-54
0.149,-0.000295399568034557,-0.000215148068785181,-0.0432447618258214,-0.0418459388303306,-0.0424769085377942,-0.0424769085377942,1994,-54
0.15,-0.00029,-0.000209105692022128,-0.0420302440964478,-0.0412111918239739,-0.0418689962232801,-0.0418689962232801,1995,-53
0.151,-0.000293599712023038,-0.000212067263203915,-0.0426255199039869,-0.0424951420901776,-0.0418588492577645,-0.0418588492577645,1995,-53
0.152,-0.000297199424046076,-0.000215019873504667,-0.0432189945744381,-0.0437001642620251,-0.0426529543336215,-0.0426529543336215,1994,-54
0.153,-0.000298401727861771,-0.000215569768771459,-0.0433295235230632,-0.0442807013076499,-0.0435103123151702,-0.0435103123151702,1993,-55
0.154,-0.000291202303815695,-0.000207728982980304,-0.0417535255790411,-0.0430483734954898,-0.0436091745500418,-0.0436091745500418,1993,-55
0.155,-0.000284002879769618,-0.00019991192120062,-0.0401822961613247,-0.0417350046681133,-0.0428287351473237,-0.0428287351473237,1994,-54
0.156,-0.00028159884767735,-0.000196906648850698,-0.0395782364189903,-0.0412472313562773,-0.0419712882658311,-0.0419712882658311,1995,-53
0.157,-0.000285199855959669,-0.000199906425202633,-0.0401811914657293,-0.0417413270586763,-0.0416655132284245,-0.0416655132284245,1995,-53
0.158,-0.000288800864241988,-0.00020289712507544,-0.0407823221401635,-0.0419840237722133,-0.0417918992457452,-0.0417918992457452,1995,-53
0.159,-0.000292401007919366,-0.000205877912635076,-0.0413814604396502,-0.0420427084597075,-0.0419338651881908,-0.0419338651881908,1995,-53
0.16,-0.000296000719942405,-0.000208849250169017,-0.0419786992839723,-0.0420048957898256,-0.0419915170706111,-0.0419915170706111,1995,-53
0.161,-0.000299600431965443,-0.00021181159727169,-0.0425741310516097,-0.041964545400936,-0.0419871603557199,-0.0419871603557199,1995,-53
0.162,-0.000304800215982721,-0.000216362632456048,-0.0434888891236656,-0.0423209526118567,-0.0420868966702561,-0.0420868966702561,1995,-53
0.163,-0.000310199784017279,-0.000221099379260731,-0.044440975231407,-0.0428468016251976,-0.0424054738806862,-0.0424054738806862,1994,-54
0.164,-0.000315199784017279,-0.000225422830458127,-0.0453099889220835,-0.0434706905175531,-0.0428883406695895,-0.0428883406695895,1994,-54
0.165,-0.000316999640028798,-0.00022653789748791,-0.0455341173950699,-0.0436725260510417,-0.0433263327302997,-0.0433263327302997,1993,-55
0.166,-0.000318799496040317,-0.000227649590638631,-0.0457575677183648,-0.0441130150390001,-0.0436894338935825,-0.0436894338935825,1993,-55
0.167,-0.000321798703637018,-0.000229955457253678,-0.0462210469079892,-0.0449789292369933,-0.0442384968707711,-0.0442384968707711,1992,-56
0.168,-0.000327200216060497,-0.000234653017442768,-0.0471652565059963,-0.0464178980314902,-0.045174340949919,-0.045174340949919,1991,-57
0.169,-0.000332601728483976,-0.000239336364136581,-0.0481066091914527,-0.0478497074909814,-0.0464304062135836,-0.0464304062135836,1989,-59
0.17,-0.000340003599712023,-0.000246002872884293,-0.049446577449743,-0.0495983037744779,-0.0479006622514977,-0.0479006622514977,1988,-60
0.171,-0.000349002879769619,-0.000254244202827175,-0.0511030847682621,-0.051504631317558,-0.0495998964146517,-0.0495998964146517,1985,-63
0.172,-0.000358002159827214,-0.000262460596824692,-0.052754579961763,-0.0532102199483799,-0.0513675433494705,-0.0513675433494705,1983,-65
0.173,-0.000367001439884809,-0.000270652130325998,-0.0544010781955256,-0.054722546745303,-0.0530334664247083,-0.0530334664247083,1981,-67
0.174,-0.000376000719942405,-0.00027881887855196,-0.056042594588944,-0.0560742476073629,-0.0545494476757497,-0.0545494476757497,1979,-69
0.175,-0.000385,-0.000286960916495847,-0.0576791442156652,-0.0573168009455132,-0.0559251378043961,-0.0559251378043961,1978,-70
0.176,-0.000385,-0.000286092653510988,-0.0575046233557085,-0.0567557989413432,-0.0566374212268526,-0.0566374212268526,1977,-71
0.177,-0.000385,-0.000285227017645599,-0.0573306305467654,-0.0563390812586602,-0.0565797410173328,-0.0565797410173328,1977,-71
0.178,-0.000386598272138229,-0.00028595985512811,-0.0574779308807502,-0.0564010424123974,-0.0564453312854071,-0.0564453312854071,1977,-71
0.179,-0.000393797696184305,-0.000292283153403684,-0.0587489138341405,-0.0576981859614173,-0.0568326921197021,-0.0568326921197021,1976,-72
0.18,-0.000400997120230382,-0.000298587319158,-0.060016051150758,-0.0590391327538275,-0.0578172865029843,-0.0578172865029843,1975,-73
0.181,-0.000412994238386748,-0.000309662846154802,-0.0622422320771152,-0.061346894861508,-0.0593401886213711,-0.0593401886213711,1973,-75
0.182,-0.000430999279798344,-0.000326703695836108,-0.0656674428630577,-0.0647721758277269,-0.0617243852388367,-0.0617243852388367,1970,-78
0.183,-0.000449004321209939,-0.000343692984701434,-0.0690822899249883,-0.0680562566604797,-0.0647306871652897,-0.0647306871652897,1967,-81
0.184,-0.000462203023758099,-0.000355831801210335,-0.0715221920432773,-0.0702894638933713,-0.0675782340317229,-0.0675782340317229,1963,-85
0.185,-0.000473002159827214,-0.00036553795280367,-0.0734731285135377,-0.0720503431212324,-0.0698805862596581,-0.0698805862596581,1960,-88
0.186,-0.000483801295896328,-0.000375214736313516,-0.0754181619990168,-0.0738695324173877,-0.071854529535076,-0.071854529535076,1958,-90
0.187,-0.000485,-0.000375276332736809,-0.0754305428800986,-0.0738862949699077,-0.0731515706623656,-0.0731515706623656,1956,-92
0.188,-0.000485,-0.000374140852153642,-0.0752023112828819,-0.0738787444295973,-0.0736201277376136,-0.0736201277376136,1956,-92
0.189,-0.000482602591792657,-0.000370615025949173,-0.0744936202157837,-0.0735853081644525,-0.0736918575833901,-0.0736918575833901,1956,-92
0.19,-0.000461004319654428,-0.000347928052177419,-0.0699335384876612,-0.0696924608504103,-0.0723758492013653,-0.0723758492013653,1957,-91
0.191,-0.000439406047516199,-0.000325309722804369,-0.0653872542836781,-0.0661339365176689,-0.0695151757928232,-0.0695151757928232,1961,-87
0.192,-0.000413608210298884,-0.000298566618403406,-0.0600118902990845,-0.0619304702174961,-0.0660004498792074,-0.0660004498792074,1965,-83
0.193,-0.000379398631616853,-0.000263505415427691,-0.0529645885009659,-0.0561501104753632,-0.0615388091530678,-0.0615388091530678,1971,-77
0.194,-0.000345189052934822,-0.000228550297786245,-0.0459386098550353,-0.0503830415141764,-0.0562360955900563,-0.0562360955900563,1977,-71
0.195,-0.000307984161267099,-0.000190710162996125,-0.038332742762221,-0.0438717161057484,-0.0503971745771756,-0.0503971745771756,1984,-64
0.196,-0.000268387329013679,-0.000150596199889847,-0.0302698361778593,-0.0366411674978271,-0.0438967048493629,-0.0438967048493629,1993,-55
0.197,-0.000228790496760259,-0.000110603610348188,-0.0222313256799858,-0.0290990812707828,-0.0368283840384283,-0.0368283840384283,2001,-47
0.198,-0.000177991360691145,-5.95466708227541e-05,-0.0119688808353736,-0.0190143837700501,-0.0286414279371387,-0.0286414279371387,2011,-37
0.199,-0.000123995680345572,-5.45250687461001e-06,-0.00109595388179661,-0.00811984766952957,-0.018978407284992,-0.018978407284992,2023,-25
0.2,-7e-05,4.84779833550828e-05,0.00974407465437165,0.00289603016212747,-0.008487062072626,-0.008487062072626,2036,-12
0.201,-1.60547156227501e-06,0.000116622359757788,0.0234410943113154,0.0168104437451985,0.00326953986730283,0.00326953986730283,2051,3
0.202,6.678905687545e-05,0.00018456055045277,0.0370966706410068,0.0305607817260435,0.0163567660649427,0.0163567660649427,2067,19
0.203,0.000140377969762419,0.000257479705376362,0.0517534207806487,0.0451601019266386,0.0301411736043006,0.0301411736043006,2084,36
0.204,0.000232170626349893,0.000348354431453487,0.070019240722151,0.0630894132611221,0.0455152659053133,0.0455152659053133,2103,55
0.205,0.000323963282937367,0.000438954196180909,0.0882297934323628,0.08058505589924,0.0623883227481772,0.0623883227481772,2124,76
0.206,0.000414171768095069,0.000527698056713014,0.106067309399316,0.0974677436548399,0.0794640131512943,0.0794640131512943,2146,98
0.207,0.000502396471011886,0.000614192622237482,0.123452717069734,0.113836334571118,0.0962512092805792,0.0962512092805792,2166,118
0.208,0.000590621173928703,0.000700425479545537,0.140785521388653,0.130256216903168,0.112786508291197,0.112786508291197,2187,139
0.209,0.000658416126709863,0.000765998577694516,0.153965714116598,0.142861346529504,0.128025145102184,0.128025145102184,2206,158
0.21,0.000716011519078474,0.000821189140187547,0.165059017177697,0.154021215471487,0.141112411703666,0.141112411703666,2222,174
0.211,0.000773606911447084,0.000876212711568648,0.176118755025298,0.165830342756408,0.153172262607692,0.153172262607692,2237,189
0.212,0.000799200863930886,0.000899116770897198,0.180722470950337,0.171893025000302,0.16322958393504,0.16322958393504,2250,202
0.213,0.000820799136069114,0.00091796189354385,0.184510340602314,0.177919731364327,0.170714708452524,0.170714708452524,2259,211
0.214,0.000837003239740821,0.000931363988303666,0.187204161649037,0.183336827859805,0.177069561759923,0.177069561759923,2267,219
0.215,0.000810005399568035,0.000901588946714186,0.181219378289551,0.180442109234375,0.18015924559785,0.18015924559785,2271,223
0.216,0.000783007559395248,0.000871903996022103,0.175252703200443,0.17788529643115,0.179521077158691,0.179521077158691,2270,222
0.217,0.0007356211739287,0.000821951163344393,0.165212183832223,0.1711965980925,0.176328686199162,0.176328686199162,2266,218
0.218,0.000647396471011883,0.000731372939060297,0.14700596075112,0.156244902065427,0.168246675865701,0.168246675865701,2256,208
0.219,0.000559171768095067,0.000641068778994912,0.128854824577977,0.141191060521114,0.155728281909015,0.155728281909015,2240,192
0.22,0.000449949604031677,0.000530072158964917,0.106544503951948,0.121521578966952,0.140105229239155,0.140105229239155,2221,173
0.221,0.000323959683225342,0.000402668993987441,0.0809364677914757,0.0980549496630992,0.120671277364713,0.120671277364713,2197,149
0.222,0.000197969762419006,0.000275651315136978,0.0554059143425326,0.0740617255838981,0.0984834954793191,0.0984834954793191,2169,121
0.223,7.61807055435565e-05,0.000153212464655781,0.0307957053958121,0.0501905199489204,0.0751774873300179,0.0751774873300179,2140,92
0.224,-4.44096472282218e-05,3.23409703158643e-05,0.00650053503348873,0.0257427662304316,0.0513243820477475,0.0513243820477475,2111,63
0.225,-0.000165,-8.81648008944312e-05,-0.0177211249797807,0.000547087645266595,0.0268503723619152,0.0268503723619152,2080,32
0.226,-0.000236994240460763,-0.000159783362320021,-0.0321164558263242,-0.0157243236897062,0.00477409647464918,0.00477409647464918,2053,5
0.227,-0.000308988480921526,-0.000231185226131615,-0.0464682304524546,-0.0329884011063942,-0.013899274597594,-0.013899274597594,2030,-18
0.228,-0.000370593952483801,-0.000291997995842414,-0.0586915971643252,-0.0487466148550531,-0.0311866036893438,-0.0311866036893438,2008,-40
0.229,-0.000395791936645068,-0.00031627435522933,-0.0635711454010954,-0.0575560272769199,-0.0452665507256532,-0.0452665507256532,1991,-57
0.23,-0.000420989920806335,-0.000340477261183911,-0.068435929497966,-0.0665208947165528,-0.0560177752583988,-0.0560177752583988,1977,-71
0.231,-0.00043340115232265,-0.000351839527868328,-0.0707197451015339,-0.0725743253780904,-0.0646907462769391,-0.0646907462769391,1967,-81
0.232,-0.000429800144040331,-0.000347179399998332,-0.0697830593996648,-0.0747949744072582,-0.0704560691075386,-0.0704560691075386,1960,-88
0.233,-0.000426199135758012,-0.000342533372363949,-0.0688492078451538,-0.0761696075740767,-0.0736780062121084,-0.0736780062121084,1956,-92
0.234,-0.000411794456443484,-0.000327114075703864,-0.0657499292164767,-0.0743370717580951,-0.0746878353492735,-0.0746878353492735,1954,-94
0.235,-0.000391996040316774,-0.000306355856649346,-0.0615775271865186,-0.0704237982955951,-0.0732087325784861,-0.0732087325784861,1956,-92
0.236,-0.000372197624190064,-0.000285660446124494,-0.0574177496710233,-0.0656041269880162,-0.0698787518498448,-0.0698787518498448,1960,-88
0.237,-0.000357199424046076,-0.000269820608019681,-0.0542339422119559,-0.0609720110848355,-0.0656539551745763,-0.0656539551745763,1966,-82
0.238,-0.000342800575953923,-0.00025462714212428,-0.0511800555669803,-0.0558886610385424,-0.0610234301022126,-0.0610234301022126,1971,-77
0.239,-0.000329800215982721,-0.000240876019786547,-0.0484160799770959,-0.0508202065015374,-0.0561074068123583,-0.0561074068123583,1977,-71
0.24,-0.000328000359971202,-0.000238350063648611,-0.0479083627933708,-0.0479923921822825,-0.0518118251005324,-0.0518118251005324,1983,-65
0.241,-0.000326200503959683,-0.000235831750343165,-0.0474021818189761,-0.0453637887360241,-0.0485209695611869,-0.0485209695611869,1987,-61
0.242,-0.000326199135758012,-0.00023511682369598,-0.047258481562892,-0.0435605155749345,-0.0459191635318871,-0.0459191635318871,1990,-58
0.243,-0.000329800144040331,-0.000238000986810864,-0.0478381983489837,-0.0430991527196729,-0.044259337003308,-0.044259337003308,1992,-56
0.244,-0.00033340115232265,-0.000240876423259743,-0.0484161610752084,-0.0433174425788676,-0.0435855938276428,-0.0435855938276428,1993,-55
0.245,-0.000337001439884809,-0.00024374243981724,-0.0489922304032652,-0.0442140927784334,-0.0437010898859811,-0.0437010898859811,1993,-55
0.246,-0.000340601151907847,-0.000246599209946696,-0.049566441199286,-0.0456951713005188,-0.0445046425484779,-0.0445046425484779,1992,-56
0.247,-0.000344200863930886,-0.000249447336293613,-0.0501389145950162,-0.0475937075614075,-0.0458763072167377,-0.0458763072167377,1990,-58
0.248,-0.000340799136069114,-0.000245295997320306,-0.0493044954613814,-0.0483313130232244,-0.0472136168805699,-0.0472136168805699,1988,-60
0.249,-0.000335399568034557,-0.000239162401408886,-0.0480716426831861,-0.048759818687148,-0.0480674303258368,-0.0480674303258368,1987,-61
0.25,-0.00033,-0.000233047364032751,-0.0468425201705829,-0.0490662655514651,-0.0486094891678046,-0.0486094891678046,1987,-61
0.251,-0.000328200143988481,-0.000230545095204206,-0.0463395641360454,-0.0497524765848068,-0.0491222339757093,-0.0491222339757093,1986,-62
0.252,-0.000326400287976962,-0.000228050397537018,-0.0458381299049407,-0.0499232901395118,-0.049580983582408,-0.049580983582408,1985,-63
0.253,-0.000324200863930886,-0.000225164284578645,-0.0452580212003077,-0.0494470380494757,-0.0496477659619502,-0.0496477659619502,1985,-63
0.254,-0.000320601151907847,-0.000220888734647689,-0.0443986356641854,-0.048162334447586,-0.0491073302482199,-0.0491073302482199,1986,-62
0.255,-0.000317001439884809,-0.000216626121327718,-0.0435418503868713,-0.0464611763065222,-0.0479563207154213,-0.0479563207154213,1987,-61
0.256,-0.000314200576161325,-0.000213174045230661,-0.0428479830913628,-0.0446455868481735,-0.0464159751140922,-0.0464159751140922,1989,-59
0.257,-0.000312400072020166,-0.00021073126032351,-0.0423569833250255,-0.0429160766514485,-0.0447267806498094,-0.0447267806498094,1991,-57
0.258,-0.000310599567879006,-0.000208295866596109,-0.0418674691858178,-0.0412395977401672,-0.0430287399741674,-0.0430287399741674,1994,-54
0.259,-0.000312401007919367,-0.000209464336631579,-0.0421023316629473,-0.040477288757997,-0.0416375241247537,-0.0416375241247537,1995,-53
0.26,-0.000316000719942405,-0.000212424822655697,-0.042697389353795,-0.0403435720333888,-0.040850925580484,-0.040850925580484,1996,-52
0.261,-0.000319600431965443,-0.000215376351082162,-0.0432906465675146,-0.0405394655747518,-0.0405884853391932,-0.0405884853391932,1997,-51
0.262,-0.000324800215982722,-0.000219916600324582,-0.0442032366652411,-0.0414071317174453,-0.0408351605359274,-0.0408351605359274,1996,-52
0.263,-0.000330199784017279,-0.000224642593822553,-0.0451531613583332,-0.0426287893383877,-0.0415933656589973,-0.0415933656589973,1995,-53
0.264,-0.000335199784017279,-0.000228955324249716,-0.046020020174193,-0.0440240598384743,-0.0427043008701728,-0.0427043008701728,1994,-54
0.265,-0.000336999640028798,-0.0002300597029473,-0.0462420002924074,-0.0449616146940861,-0.0438507985599852,-0.0438507985599852,1993,-55
0.266,-0.000338799496040317,-0.000231160740105709,-0.0464633087612475,-0.0460040257001366,-0.0448969662760917,-0.0448969662760917,1991,-57
0.267,-0.000338201296362982,-0.000229864018067505,-0.0462026676315685,-0.046563390661813,-0.0457859033946065,-0.0457859033946065,1990,-58
0.268,-0.000332799783939503,-0.000223775173535537,-0.044978809880643,-0.0460954589958937,-0.0461343145704058,-0.0461343145704058,1990,-58
0.269,-0.000327398271516024,-0.000217704752133772,-0.0437586551788881,-0.0455132397271722,-0.0459227984108719,-0.0459227984108719,1990,-58
0.27,-0.000329002879769618,-0.000218648219521222,-0.0439482921237656,-0.0461053713328487,-0.0458500465641658,-0.0458500465641658,1990,-58
0.271,-0.000336202303815695,-0.000225175183865197,-0.0452602119569047,-0.0474504294280625,-0.0464448246515311,-0.0464448246515311,1989,-59
0.272,-0.000343401727861771,-0.000231682399451703,-0.0465681622897923,-0.0483929984213379,-0.0473915485445882,-0.0473915485445882,1988,-60
0.273,-0.000342199424046076,-0.000229780908805316,-0.0461859626698684,-0.04737307878405,-0.0477066062741432,-0.0477066062741432,1988,-60
0.274,-0.000338599712023038,-0.000225491390268529,-0.0453237694439744,-0.0457997256486553,-0.0469885267499185,-0.0469885267499185,1989,-59
0.275,-0.000335,-0.0002212148506078,-0.0444641849721677,-0.0442802982485944,-0.0457394788003713,-0.0457394788003713,1990,-58
0.276,-0.000333200143988481,-0.000218748383635306,-0.0439684251106965,-0.0432521779773341,-0.0444745809238283,-0.0444745809238283,1992,-56
0.277,-0.000331400287976962,-0.000216289379497828,-0.0434741652790634,-0.0423993940136865,-0.0434176610979835,-0.0434176610979835,1993,-55
0.278,-0.000330399568034557,-0.000214635742703603,-0.0431417842834242,-0.0419138959932237,-0.0426093174476448,-0.0426093174476448,1994,-54
0.279,-0.000332199424046076,-0.000215783448425532,-0.043372473133532,-0.0421795511648276,-0.0422486803523761,-0.0422486803523761,1995,-53
0.28,-0.000333999280057595,-0.000216927681512902,-0.0436024639840934,-0.0425877967707594,-0.0423352147212334,-0.0423352147212334,1994,-54
0.281,-0.000334200576161325,-0.000216472310961368,-0.043510934503235,-0.0427917654119936,-0.0425625008559405,-0.0425625008559405,1994,-54
0.282,-0.000332400072020166,-0.000214019546430221,-0.0430179288324745,-0.0426884609766159,-0.0426763549189945,-0.0426763549189945,1994,-54
0.283,-0.000330599567879006,-0.000211574203274358,-0.0425264148581459,-0.0426392458350196,-0.0426683411284966,-0.0426683411284966,1994,-54
0.284,-0.000328799496040317,-0.000209136690687242,-0.0420364748281356,-0.0425797922931676,-0.0426306346769562,-0.0426306346769562,1994,-54
0.285,-0.000326999640028798,-0.000206706768827973,-0.0415480605344225,-0.0424520178224448,-0.042557090049296,-0.042557090049296,1994,-54
0.286,-0.000325199784017279,-0.000204284199228489,-0.0410611240449263,-0.0422116761389578,-0.0424127034668635,-0.0424127034668635,1994,-54
0.287,-0.000326600071994241,-0.000205064262263796,-0.041217916715023,-0.0424579544781059,-0.0423627751602406,-0.0423627751602406,1994,-54
0.288,-0.00032839992800576,-0.0002062409285922,-0.0414544266470322,-0.0425941762317654,-0.0424674483619682,-0.0424674483619682,1994,-54
0.289,-0.00033,-0.000207214552887229,-0.0416501251303331,-0.0425249752166215,-0.0425265043633946,-0.0425265043633946,1994,-54
0.29,-0.00033,-0.000206587579958675,-0.0415241035716936,-0.0420285650688007,-0.0423664183244949,-0.0423664183244949,1994,-54
0.291,-0.00033,-0.000205962504073777,-0.0413984633188292,-0.0415003525603416,-0.0419805468437745,-0.0419805468437745,1995,-53
0.292,-0.000331798703637018,-0.000207135301944102,-0.0416341956907644,-0.0413487062854597,-0.0416241254201374,-0.0416241254201374,1995,-53
0.293,-0.000337200216060497,-0.000211901909501753,-0.0425922838098524,-0.0419497019393228,-0.0416402015049155,-0.0416402015049155,1995,-53
0.294,-0.000342601728483976,-0.00021665409464622,-0.0435474730238902,-0.0425911784534617,-0.0420442006661186,-0.0420442006661186,1995,-53
0.295,-0.000347001439884809,-0.000220391615577018,-0.0442987147309807,-0.0431174823083009,-0.0425635145858383,-0.0425635145858383,1994,-54
0.296,-0.000350601151907847,-0.000223319038729895,-0.0448871267847088,-0.0436078380168423,-0.0430757873914365,-0.0430757873914365,1994,-54
0.297,-0.000354200863930886,-0.000226237604324063,-0.0454737584691367,-0.0442349043877988,-0.0436178282958493,-0.0436178282958493,1993,-55
0.298,-0.000349398848092153,-0.000220758321930399,-0.0443724227080102,-0.0433433633458196,-0.0437276395592852,-0.0437276395592852,1993,-55
0.299,-0.000342199424046076,-0.000212901837037402,-0.0427932692445178,-0.0421936785273227,-0.0431128199293403,-0.0431128199293403,1994,-54
0.3,-0.000335,-0.00020506912365694,-0.041218893855045,-0.0412155784555679,-0.0422101331101768,-0.0422101331101768,1995,-53
0.301,-0.000331400287976962,-0.000200854376028318,-0.040371729581692,-0.04101744284626,-0.0415090930721878,-0.0415090930721878,1995,-53
0.302,-0.000327800575953924,-0.000196652381040025,-0.0395271285890451,-0.0407482699654999,-0.0411076593117341,-0.0411076593117341,1996,-52
0.303,-0.000323401727861771,-0.000191665173017482,-0.038524699776514,-0.0401787591518024,-0.0406947460084758,-0.0406947460084758,1997,-51
0.304,-0.000316202303815695,-0.000183896715806521,-0.0369632398771108,-0.0388818652193372,-0.0399483140707155,-0.0399483140707155,1997,-51
0.305,-0.000309002879769618,-0.0001761517637611,-0.0354065045159811,-0.0374234724241034,-0.0387972594239237,-0.0387972594239237,1999,-49
0.306,-0.000307398271516024,-0.000174016597384558,-0.0349773360742962,-0.03689397155584,-0.0377469149149801,-0.0377469149149801,2000,-48
0.307,-0.000312799783939503,-0.000178883412822874,-0.0359555659773977,-0.0375104624509763,-0.0373977495870494,-0.0373977495870494,2001,-47
0.308,-0.000318201296362982,-0.000183735502647156,-0.0369308360320783,-0.0378661112931098,-0.0375839914364043,-0.0375839914364043,2000,-48
0.309,-0.00032,-0.000184975553169301,-0.0371800861870294,-0.0373617200690438,-0.0376031736445277,-0.0376031736445277,2000,-48
0.31,-0.00032,-0.00018441586919602,-0.0370675897084,-0.0365180660928717,-0.0371779937960854,-0.0371779937960854,2001,-47
0.311,-0.00032,-0.000183857878668952,-0.0369554336124593,-0.0358122044785995,-0.0365287255202202,-0.0365287255202202,2002,-46
0.312,-0.000323200143988481,-0.000186496879085078,-0.0374858726961007,-0.0359395677335094,-0.0361102387162678,-0.0361102387162678,2002,-46
0.313,-0.000326799856011519,-0.000189526858172877,-0.0380948984927483,-0.0363451126580562,-0.0361308165877518,-0.0361308165877518,2002,-46
0.314,-0.000330399568034557,-0.000192547669396567,-0.0387020815487101,-0.0369578390832404,-0.0364645725383265,-0.0364645725383265,2002,-46
0.315,-0.000333999280057596,-0.000195559340495527,-0.0393074274396009,-0.0377616686874304,-0.0370384067351271,-0.0370384067351271,2001,-47
0.316,-0.000337598992080634,-0.0001985618991252,-0.0399109417241652,-0.0387153620160737,-0.0378077071303995,-0.0378077071303995,2000,-48
0.317,-0.000339400432120994,-0.000199759821407178,-0.0401517241028428,-0.0394090606840093,-0.0386118765019649,-0.0386118765019649,1999,-49
0.318,-0.000337599927979834,-0.000197357624166664,-0.0396688824574995,-0.039449203168366,-0.039135758184159,-0.039135758184159,1998,-50
0.319,-0.000335799423838675,-0.000194962695299042,-0.0391875017551074,-0.039517799056978,-0.0393586703178212,-0.0393586703178212,1998,-50
0.32,-0.000336000719942405,-0.000194573784615023,-0.0391093307076196,-0.0399282997624138,-0.0395922466587665,-0.0395922466587665,1998,-50
0.321,-0.000337800575953924,-0.000195782192176857,-0.0393522206275483,-0.0405087895282777,-0.0399937197270866,-0.0399937197270866,1997,-51
0.322,-0.000339600431965443,-0.000196986943437446,-0.0395943756309266,-0.0408876650652747,-0.0404453271435543,-0.0404453271435543,1997,-51
0.323,-0.000341400287976962,-0.000198188049459726,-0.039835797941405,-0.0410611709467207,-0.0407844879528129,-0.0407844879528129,1996,-52
0.324,-0.000343200143988481,-0.000199385521273165,-0.0400764897759062,-0.0410537775455235,-0.0409594791664726,-0.0409594791664726,1996,-52
0.325,-0.000345,-0.000200579369873856,-0.040316453344645,-0.0409127512719421,-0.0409747261166394,-0.0409747261166394,1996,-52
0.326,-0.000348599712023038,-0.000203566739307226,-0.0409169146007523,-0.0410512744127472,-0.0409793970946556,-0.0409793970946556,1996,-52
0.327,-0.000352199424046076,-0.000206545069801311,-0.0415155590300636,-0.0411594333151749,-0.0410601386134411,-0.0410601386134411,1996,-52
0.328,-0.000355,-0.000208716461616723,-0.0419520087849613,-0.0411505069170989,-0.0411209280382461,-0.0411209280382461,1996,-52
0.329,-0.000355,-0.000208084944334978,-0.0418250738113306,-0.0407038581276148,-0.0409967321947274,-0.0409967321947274,1996,-52
0.33,-0.000355,-0.000207455337846824,-0.0416985229072116,-0.0404437529288657,-0.0407256253572356,-0.0407256253572356,1996,-52
0.331,-0.000352601728483975,-0.000204432993102089,-0.0410910316135198,-0.0399065817538225,-0.040372767654741,-0.040372767654741,1997,-51
0.332,-0.000347200216060497,-0.000198421095695583,-0.0398826402348123,-0.0389865860186392,-0.0397790601108242,-0.0397790601108242,1998,-50
0.333,-0.000341798703637018,-0.000192427388598931,-0.0386779051083852,-0.0382605815031518,-0.0390383701429212,-0.0390383701429212,1999,-49
0.334,-0.000337598992080633,-0.000187651799484844,-0.0377180116964536,-0.037883369000774,-0.0384188862384607,-0.0384188862384607,1999,-49
0.335,-0.000333999280057595,-0.000183489751778074,-0.0368814401073929,-0.0376313987462559,-0.0379948462609314,-0.0379948462609314,2000,-48
0.336,-0.000330399568034557,-0.000179340297256499,-0.0360473997485562,-0.0372981054213071,-0.0376550423012199,-0.0376550423012199,2000,-48
0.337,-0.00033,-0.000178398700437557,-0.0358581387879489,-0.0374456513487776,-0.0374735269703369,-0.0374735269703369,2000,-48
0.338,-0.00033,-0.000177858916169969,-0.0357496421501638,-0.0374440069442972,-0.0374551309294398,-0.0374551309294398,2001,-47
0.339,-0.00033,-0.000177320765137685,-0.0356414737926747,-0.0372113980450727,-0.0373734460353662,-0.0373734460353662,2001,-47
0.34,-0.00033,-0.000176784242398993,-0.0355336327221976,-0.036781905028986,-0.0371319111005349,-0.0371319111005349,2001,-47
0.341,-0.00033,-0.000176249343027135,-0.0354261179484542,-0.036214020968914,-0.0367255341123394,-0.0367255341123394,2001,-47
0.342,-0.000331199135758012,-0.000176913383744585,-0.0355595901326615,-0.0358148811555812,-0.0362697116443318,-0.0362697116443318,2002,-46
0.343,-0.000334800144040331,-0.000179973654090789,-0.0361747044722487,-0.0358787610605958,-0.0359986279672528,-0.0359986279672528,2002,-46
0.344,-0.000338401152322651,-0.000183024664920062,-0.0367879576489324,-0.0359765235238365,-0.0359531243294088,-0.0359531243294088,2002,-46
0.345,-0.000342001439884809,-0.000186065724619282,-0.0373992106484758,-0.0361759292178487,-0.0360320358944304,-0.0360320358944304,2002,-46
0.346,-0.000345601151907848,-0.000189097008259171,-0.0380084986600934,-0.0365257405374532,-0.0362363942170077,-0.0362363942170077,2002,-46
0.347,-0.000349200863930886,-0.000192119120087744,-0.0386159431376366,-0.037050386675735,-0.0365900284411015,-0.0365900284411015,2002,-46
0.348,-0.00034299856011519,-0.000185344901088449,-0.0372543251187782,-0.0358352785407237,-0.0364956721379784,-0.0364956721379784,2002,-46
0.349,-0.000333999280057595,-0.000175798434159266,-0.0353354852660124,-0.0343620109011793,-0.0356001417424483,-0.0356001417424483,2003,-45
0.35,-0.000325,-0.000166280852152713,-0.0334224512826954,-0.0331363277509086,-0.0344136209627019,-0.0344136209627019,2004,-44
0.351,-0.000325,-0.000165777733084173,-0.0333213243499187,-0.0338023288243419,-0.0338083051453451,-0.0338083051453451,2005,-43
0.352,-0.000325,-0.00016527613631236,-0.0332205033987843,-0.0343536662029857,-0.0339811848686263,-0.0339811848686263,2005,-43
0.353,-0.000325399568034557,-0.000165175020775572,-0.0332001791758899,-0.0347877339018141,-0.0343590792171991,-0.0343590792171991,2004,-44
0.354,-0.000327199424046076,-0.000166472380724212,-0.0334609485255667,-0.0352462136918449,-0.034780806511834,-0.034780806511834,2004,-44
0.355,-0.000328999280057595,-0.000167765815226715,-0.0337209288605697,-0.0354261893150611,-0.035136828942359,-0.035136828942359,2003,-45
0.356,-0.00033,-0.000168257409071698,-0.0338197392234112,-0.0352032325218288,-0.0352508558501064,-0.0352508558501064,2003,-45
0.357,-0.00033,-0.000167748309498107,-0.0337174102091195,-0.0346122288623143,-0.0350309038257251,-0.0350309038257251,2004,-44
0.358,-0.00033,-0.00016724075031657,-0.0336153908136305,-0.0339430384245321,-0.0345480383242495,-0.0345480383242495,2004,-44
0.359,-0.000331200503959683,-0.000167933414632391,-0.0337546163411106,-0.0335131961286241,-0.0340224479090755,-0.0340224479090755,2005,-43
0.36,-0.000333000359971202,-0.00016922242845741,-0.0340137081199395,-0.0332646842459606,-0.0336163532156248,-0.0336163532156248,2005,-43
0.361,-0.000334800215982721,-0.000170507542089313,-0.0342720159599519,-0.0331360910383906,-0.0333497086172599,-0.0333497086172599,2006,-42
0.362,-0.000335,-0.00017019111601855,-0.0342084143197285,-0.0328591167676291,-0.0331240004670996,-0.0331240004670996,2006,-42
0.363,-0.000335,-0.000169676165591867,-0.0341049092839653,-0.0327481076763194,-0.0329186233868911,-0.0329186233868911,2006,-42
0.364,-0.000335199784017279,-0.000169362255032442,-0.0340418132615209,-0.0328699084198345,-0.0328483571440615,-0.0328483571440615,2006,-42
0.365,-0.000336999640028798,-0.000170646945588475,-0.0343000360632835,-0.0334552067881484,-0.0330497676952986,-0.0330497676952986,2006,-42
0.366,-0.000338799496040317,-0.000171927749032387,-0.0345574775555098,-0.0341118280880015,-0.0335201200945142,-0.0335201200945142,2005,-43
0.367,-0.000338800864241988,-0.000171408910174653,-0.0344531909451053,-0.0344289867283626,-0.0340010735007116,-0.0340010735007116,2005,-43
0.368,-0.000335199855959669,-0.000167294714582097,-0.0336262376310015,-0.0340232529002153,-0.034145333958133,-0.034145333958133,2005,-43
0.369,-0.00033159884767735,-0.000163192967387702,-0.0328017864449282,-0.0335957453894877,-0.0339300552316705,-0.0339300552316705,2005,-43
0.37,-0.000332001439884809,-0.000163101174531648,-0.0327833360808612,-0.0338752012881486,-0.0338053232490728,-0.0338053232490728,2005,-43
0.371,-0.000335601151907847,-0.000166201942438065,-0.0334065904300511,-0.0346088706057996,-0.034085267286189,-0.034085267286189,2005,-43
0.372,-0.000339200863930886,-0.000169293328293328,-0.034027958986959,-0.0351222318461353,-0.0345854492988675,-0.0345854492988675,2004,-44
0.373,-0.000342800575953924,-0.000172375360484884,-0.0346474474574617,-0.0354463392281821,-0.03503342124649,-0.03503342124649,2004,-44
0.374,-0.000346400287976962,-0.000175448067314287,-0.0352650615301718,-0.0356355399523472,-0.0353587535181404,-0.0353587535181404,2003,-45
0.375,-0.00035,-0.000178511476997459,-0.0358808068764893,-0.0357583294438575,-0.0355755363258083,-0.0355755363258083,2003,-45
0.376,-0.000351799856011519,-0.000179768484582342,-0.0361334654010508,-0.0355356895626786,-0.0356213524652056,-0.0356213524652056,2003,-45
0.377,-0.000353599712023038,-0.000181021688815985,-0.036385359452013,-0.0354104168748177,-0.0355262888456816,-0.0355262888456816,2003,-45
0.378,-0.000354600431965443,-0.000181473174117581,-0.0364761079976339,-0.0352708616875244,-0.0354072827145851,-0.0354072827145851,2003,-45
0.379,-0.000352800575953924,-0.000179126954275164,-0.036004517809308,-0.0347594055819593,-0.035155905099301,-0.035155905099301,2003,-45
0.38,-0.000351000719942405,-0.000176787833433783,-0.0355343545201904,-0.0344572223740792,-0.0348048851497614,-0.0348048851497614,2004,-44
0.381,-0.000349200576161325,-0.000174455502779653,-0.0350655560587103,-0.0343258286914542,-0.0345399110363033,-0.0345399110363033,2004,-44
0.382,-0.000347400072020166,-0.000172129869286878,-0.0345981037266624,-0.0343064912954151,-0.0343964808806182,-0.0343964808806182,2004,-44
0.383,-0.000345599567879006,-0.000169811272506637,-0.034132065773834,-0.0343297863299116,-0.0343462616062882,-0.0343462616062882,2004,-44
0.384,-0.00034139848812095,-0.00016510274726408,-0.0331856522000801,-0.0338572277318409,-0.0341842394425626,-0.0341842394425626,2005,-43
0.385,-0.000335998920086393,-0.000159211793561605,-0.0320015705058826,-0.0330967948910968,-0.0337308880764769,-0.0337308880764769,2005,-43
0.386,-0.000330599352051836,-0.000153338664227368,-0.0308210715097009,-0.0322465218261218,-0.0330518946675874,-0.0330518946675874,2006,-42
0.387,-0.000326799856011519,-0.000149080956640282,-0.0299652722846966,-0.0315802152472288,-0.032322070224695,-0.032322070224695,2007,-41
0.388,-0.000323200143988481,-0.000145035613450439,-0.0291521583035383,-0.0307841495727366,-0.0315913729075717,-0.0315913729075717,2008,-40
0.389,-0.000320599352051836,-0.00014199991919161,-0.0285419837575136,-0.0300214300519439,-0.0308294606670387,-0.0308294606670387,2009,-39
0.39,-0.000325998920086393,-0.000146961666641571,-0.0295392949949558,-0.0306762326395724,-0.0305213649482691,-0.0305213649482691,2009,-39
0.391,-0.00033139848812095,-0.000151908401239944,-0.0305335886492288,-0.0311243849574177,-0.0307642776727729,-0.0307642776727729,2009,-39
0.392,-0.000334400432120994,-0.000154446171644708,-0.0310436805005863,-0.0309878495783437,-0.0309513543363036,-0.0309513543363036,2009,-39
0.393,-0.000332599927979834,-0.000152181080757485,-0.0305883972322544,-0.0299302894650375,-0.0306357871474491,-0.0306357871474491,2009,-39
0.394,-0.000330799423838675,-0.000149922843397908,-0.0301344915229795,-0.0290421841394392,-0.0298988959005191,-0.0298988959005191,2010,-38
0.395,-0.000333002159827214,-0.000151668622619753,-0.0304853931465704,-0.0291515693329735,-0.0293847810516007,-0.0293847810516007,2011,-37
0.396,-0.000338401727861771,-0.000156601115293835,-0.0314768241740609,-0.030057891267,-0.0295257741595405,-0.0295257741595405,2010,-38
0.397,-0.000343801295896328,-0.000161518683633049,-0.0324652554102428,-0.0310880378312117,-0.0301970500502875,-0.0301970500502875,2010,-38
0.398,-0.000340799136069114,-0.000158032355564627,-0.0317645034684899,-0.0305874729064195,-0.0306077585878055,-0.0306077585878055,2009,-39
0.399,-0.000335399568034557,-0.000152162794877884,-0.0305847217704546,-0.029818871287033,-0.0303484082730111,-0.0303484082730111,2009,-39
0.4,-0.00033,-0.000146310993830133,-0.0294085097598566,-0.029215194644846,-0.0298154753838626,-0.0298154753838626,2010,-38
0.401,-0.000331799856011519,-0.000147665431016127,-0.0296807516342415,-0.0300910836890989,-0.0297114137063689,-0.0297114137063689,2010,-38
0.402,-0.000333599712023038,-0.000149015770056324,-0.0299521697813212,-0.0308453355855627,-0.0301965393031393,-0.0301965393031393,2010,-38
0.403,-0.000335,-0.000149963059806222,-0.0301425750210505,-0.0313430288033314,-0.030771951412952,-0.030771951412952,2009,-39
0.404,-0.000335,-0.000149509313785628,-0.0300513720709112,-0.0313661124835135,-0.0311454252786382,-0.0311454252786382,2008,-40
0.405,-0.000335,-0.000149056940672812,-0.0299604450752352,-0.0312081981159358,-0.0312362778562577,-0.0312362778562577,2008,-40
0.406,-0.00033659884767735,-0.000150202365159507,-0.0301906753970608,-0.0312038556042045,-0.0312168861920349,-0.0312168861920349,2008,-40
0.407,-0.000340199855959669,-0.000153343455531688,-0.0308220345618692,-0.031451526525713,-0.0312879149567297,-0.0312879149567297,2008,-40
0.408,-0.000343800864241988,-0.00015647504184828,-0.0314514834115042,-0.0315930459310715,-0.0314381529513851,-0.0314381529513851,2008,-40
0.409,-0.000345,-0.000157198914036769,-0.0315969817213905,-0.0312341591972264,-0.0314224155236697,-0.0314224155236697,2008,-40
0.41,-0.000345,-0.000156723274357384,-0.0315013781458341,-0.0307169214415056,-0.0311359570593725,-0.0311359570593725,2008,-40
0.411,-0.000345,-0.000156249073829827,-0.0314060638397953,-0.030345364690867,-0.0307482557816891,-0.0307482557816891,2009,-39
0.412,-0.000348200143988481,-0.000158971610720505,-0.0319532937548215,-0.0307709809744078,-0.0306264077374252,-0.0306264077374252,2009,-39
0.413,-0.000351799856011519,-0.000162084873524989,-0.0325790595785229,-0.0314029539652594,-0.0309216383351229,-0.0309216383351229,2009,-39
0.414,-0.000354400647948164,-0.000164191307611428,-0.0330024528298969,-0.0319520092056716,-0.0314061532391887,-0.0314061532391887,2008,-40
0.415,-0.000349001079913607,-0.00015830311166887,-0.0318189254454428,-0.0310413077351745,-0.0314641694130569,-0.0314641694130569,2008,-40
0.416,-0.00034360151187905,-0.000152432731750344,-0.0306389790818192,-0.030307661475102,-0.0309579612028526,-0.0309579612028526,2009,-39
0.417,-0.00034,-0.000148375449899098,-0.0298234654297188,-0.0300279190968997,-0.0304514413843579,-0.0304514413843579,2009,-39
0.418,-0.00034,-0.000147926507539343,-0.029733228015408,-0.0304462215054677,-0.0303140240233488,-0.0303140240233488,2009,-39
0.419,-0.00034,-0.00014747892355284,-0.0296432636341208,-0.0307364686264668,-0.0304917939224632,-0.0304917939224632,2009,-39
0.42,-0.000338999280057595,-0.000146033487835604,-0.0293527310549565,-0.0306609047177702,-0.0306244174799346,-0.0306244174799346,2009,-39
0.421,-0.000337199424046076,-0.000143794498511438,-0.0289026942007991,-0.0302571637403565,-0.0305184025755299,-0.0305184025755299,2009,-39
0.422,-0.000335399568034557,-0.000141562283738934,-0.0284540190315257,-0.0296996297624811,-0.0301722449959715,-0.0301722449959715,2010,-38
0.423,-0.000333599712023038,-0.000139336823020204,-0.028006701427061,-0.0290145431535993,-0.0296497074716566,-0.0296497074716566,2010,-38
0.424,-0.000331799856011519,-0.000137118095919382,-0.0275607372797959,-0.0282438088310572,-0.0289955206259333,-0.0289955206259333,2011,-37
0.425,-0.00033,-0.000134906082062436,-0.0271161224945497,-0.0274381137806014,-0.0282554184976615,-0.0282554184976615,2012,-36
0.426,-0.000337199424046076,-0.000141686426550009,-0.0284789717365518,-0.0284056606253713,-0.0280416163856902,-0.0280416163856902,2012,-36
0.427,-0.000344398848092153,-0.000148446255623096,-0.0298376973802422,-0.0293076337431353,-0.0285640720257948,-0.0285640720257948,2012,-36
0.428,-0.00035,-0.000153589777178214,-0.030871545212821,-0.0298993565170854,-0.0292303688875355,-0.0292303688875355,2011,-37
0.429,-0.00035,-0.000153125057731381,-0.0307781366040076,-0.0294839137500891,-0.0295260523785943,-0.0295260523785943,2010,-38
0.43,-0.00035,-0.000152661744394826,-0.0306850106233601,-0.0292762356010155,-0.0294324769279263,-0.0294324769279263,2010,-38
0.431,-0.000349200576161325,-0.000151401618491173,-0.0304317253167257,-0.0291205800675024,-0.0292824326371139,-0.0292824326371139,2011,-37
0.432,-0.000347400072020166,-0.00014914573956508,-0.029978293652581,-0.0289608808344331,-0.0291274953383023,-0.0291274953383023,2011,-37
0.433,-0.000345599567879006,-0.000146896686293831,-0.02952623394506,-0.0289532814428783,-0.0290182554667339,-0.0290182554667339,2011,-37
0.434,-0.000342598992080634,-0.000143456181907275,-0.0288346925633622,-0.0287916175630049,-0.0289247901053286,-0.0289247901053286,2011,-37
0.435,-0.000338999280057595,-0.000139427857703009,-0.0280249993983048,-0.0285329028193957,-0.0287565016988361,-0.0287565016988361,2011,-37
0.436,-0.000335399568034557,-0.000135411722074248,-0.0272177561369238,-0.0282263431927138,-0.028514912793207,-0.028514912793207,2012,-36
0.437,-0.000335,-0.000134603040762665,-0.0270552111932956,-0.0284316332878564,-0.0283957303874878,-0.0283957303874878,2012,-36
0.438,-0.000335,-0.000134195769837513,-0.0269733497373401,-0.0285122120736454,-0.028444571601118,-0.028444571601118,2012,-36
0.439,-0.000335,-0.000133789731199578,-0.0268917359711152,-0.0283769028903046,-0.0284445625503853,-0.0284445625503853,2012,-36
0.44,-0.000335,-0.000133384921120305,-0.0268103691451814,-0.0280490091257833,-0.0282960968181152,-0.0282960968181152,2012,-36
0.441,-0.000335,-0.000132981335882423,-0.0267292485123669,-0.0275764459357294,-0.0279862447108338,-0.0279862447108338,2012,-36
0.442,-0.000336798703637019,-0.00013437495423139,-0.0270093658005094,-0.0273744118567151,-0.0276587986758264,-0.0276587986758264,2013,-35
0.443,-0.000342200216060497,-0.000139361714127053,-0.0280117045395376,-0.0278397707328304,-0.0276256529187407,-0.0276256529187407,2013,-35
0.444,-0.000347601728483976,-0.000144333385490504,-0.0290110104835914,-0.0282912362097702,-0.0279076084011507,-0.0279076084011507,2012,-36
0.445,-0.000351000719942405,-0.000147290522542822,-0.0296053950311073,-0.0284138520000167,-0.0281928235958576,-0.0281928235958576,2012,-36
0.446,-0.000352800575953924,-0.000148641995950564,-0.0298770411860633,-0.0283762929489764,-0.0283224703129338,-0.0283224703129338,2012,-36
0.447,-0.000354600431965443,-0.000149989380180067,-0.0301478654161934,-0.028545675621524,-0.028411261320829,-0.028411261320829,2012,-36
0.448,-0.000355,-0.000149934518065767,-0.0301368381312191,-0.0286472664786437,-0.0285299855062488,-0.0285299855062488,2012,-36
0.449,-0.000355,-0.000149480858404448,-0.0300456525392941,-0.0288668304428057,-0.0286755386821949,-0.0286755386821949,2011,-37
0.45,-0.000355,-0.000149028571389609,-0.0299547428493113,-0.0292314159028068,-0.0289150159197663,-0.0289150159197663,2011,-37
0.451,-0.000351400287976962,-0.000144983386702794,-0.0291416607272616,-0.0289655626943723,-0.0290326270600376,-0.0290326270600376,2011,-37
0.452,-0.000347800575953924,-0.00014095044160656,-0.0283310387629186,-0.0287458191446373,-0.028919206457132,-0.028919206457132,2011,-37
0.453,-0.000345,-0.000137727626156026,-0.0276832528573613,-0.0286440286135414,-0.0287754355737713,-0.0287754355737713,2011,-37
0.454,-0.000345,-0.000137310901114707,-0.0275994911240561,-0.028967020192115,-0.0287947232847052,-0.0287947232847052,2011,-37
0.455,-0.000345,-0.0001368954369661,-0.027515982830186,-0.0290795960094145,-0.0289412520129485,-0.0289412520129485,2011,-37
0.456,-0.00034340115232265,-0.000134884801049333,-0.0271118450109159,-0.0286585090273266,-0.028894970285655,-0.028894970285655,2011,-37
0.457,-0.000339800144040331,-0.000130881117133404,-0.0263071045438141,-0.0276677853486944,-0.0284258529153701,-0.0284258529153701,2012,-36
0.458,-0.000336199135758012,-0.0001268895472384,-0.0255047989949184,-0.0265668872286133,-0.0275870602059366,-0.0275870602059366,2013,-35
0.459,-0.00033860151187905,-0.00012890435683811,-0.02590977572446,-0.0265763627558208,-0.026936140197142,-0.026936140197142,2014,-34
0.46,-0.000344001079913607,-0.000133905727774768,-0.0269150512827285,-0.0270778418616233,-0.0268662441148215,-0.0268662441148215,2014,-34
0.461,-0.000349400647948164,-0.000138891965970318,-0.0279172851600339,-0.0275170323724941,-0.0271426498854864,-0.0271426498854864,2013,-35
0.462,-0.000353200143988481,-0.000142265465901738,-0.0285953586462493,-0.027663176717409,-0.0274294797954,-0.0274294797954,2013,-35
0.463,-0.000356799856011519,-0.000145429276799471,-0.0292312846366937,-0.0278848360371594,-0.0276503301684027,-0.0276503301684027,2013,-35
0.464,-0.00036,-0.00014818455135136,-0.0297850948216233,-0.0281941358285468,-0.0278997889917684,-0.0278997889917684,2012,-36
0.465,-0.00036,-0.000147736186596893,-0.0296949735059754,-0.0280716654446216,-0.028049219533317,-0.028049219533317,2012,-36
0.466,-0.00036,-0.000147289178468006,-0.0296051248720693,-0.0281802211144992,-0.0280984014219346,-0.0280984014219346,2012,-36
0.467,-0.00036,-0.000146843522859934,-0.0295155480948467,-0.0284756146465911,-0.0282455273569414,-0.0282455273569414,2012,-36
0.468,-0.00036,-0.000146399215680327,-0.0294262423517458,-0.0288914467849606,-0.0285262987408096,-0.0285262987408096,2012,-36
0.469,-0.00036,-0.000145956252849222,-0.0293372068226936,-0.0293498185852077,-0.0289072820384215,-0.0289072820384215,2011,-37
0.47,-0.000361000719942405,-0.000146513836292927,-0.0294492810948782,-0.0299681222087167,-0.0293891335503066,-0.0293891335503066,2011,-37
0.471,-0.000362800575953924,-0.000147867659734707,-0.0297213996066761,-0.0306254558725144,-0.0299709639928123,-0.0299709639928123,2010,-38
0.472,-0.000364600431965443,-0.000149217386887707,-0.0299926947644291,-0.0311098911681116,-0.0305457777924923,-0.0305457777924923,2009,-39
0.473,-0.000363599712023038,-0.000147766691069609,-0.0297011049049915,-0.0308585492007692,-0.0308268306078436,-0.0308268306078436,2009,-39
0.474,-0.000361799856011519,-0.000145522457560166,-0.0292500139695934,-0.030312622449753,-0.0306721865164446,-0.0306721865164446,2009,-39
0.475,-0.00036,-0.000143285014469814,-0.0288002879084327,-0.0296632847698512,-0.0302335756788533,-0.0302335756788533,2009,-39
0.476,-0.000363599712023038,-0.000146445740500473,-0.0294355938405951,-0.0299992276173693,-0.0299756785729283,-0.0299756785729283,2010,-38
0.477,-0.000367199424046077,-0.000149596903063566,-0.0300689775157768,-0.0302314717285837,-0.0300652113293694,-0.0300652113293694,2010,-38
0.478,-0.000371198704103672,-0.000153137494639793,-0.0307806364225983,-0.0305004591239578,-0.0302580024171267,-0.0302580024171267,2009,-39
0.479,-0.000376598272138229,-0.000158065542920471,-0.0317711741270146,-0.031058999807067,-0.0305924428327586,-0.0305924428327586,2009,-39
0.48,-0.000381997840172786,-0.000162978680313764,-0.0327587147430665,-0.0316705710524096,-0.0310875342410789,-0.0310875342410789,2008,-40
0.481,-0.000382601728483975,-0.000163088527401143,-0.0327807940076297,-0.0314466776173901,-0.0313895150704513,-0.0313895150704513,2008,-40
0.482,-0.000377200216060497,-0.000157201726713853,-0.0315975470694846,-0.0302494686120138,-0.0310424368936889,-0.0310424368936889,2008,-40
0.483,-0.000371798703637019,-0.000151332737828947,-0.0304178803036182,-0.0293284187940051,-0.0302389156176123,-0.0302389156176123,2009,-39
0.484,-0.000367598992080634,-0.00014668148956439,-0.0294829794024424,-0.0288623123392622,-0.0295058707131388,-0.0295058707131388,2010,-38
0.485,-0.000363999280057595,-0.000142643406486729,-0.0286713247038325,-0.0286353008227003,-0.029020573192525,-0.029020573192525,2011,-37
0.486,-0.000360399568034557,-0.000138617541512177,-0.0278621258439476,-0.0284323909527166,-0.0287085685099503,-0.0287085685099503,2011,-37
0.487,-0.00035839992800576,-0.00013620150898263,-0.0273765033055086,-0.0284812607727921,-0.028547195018158,-0.028547195018158,2012,-36
0.488,-0.000356600071994241,-0.000133992268459834,-0.0269324459604267,-0.0284160535631347,-0.0284840297295717,-0.0284840297295717,2012,-36
0.489,-0.000355199784017279,-0.000132188676021537,-0.0265699238803289,-0.0282323352063896,-0.0283815711752066,-0.0283815711752066,2012,-36
0.49,-0.000356999640028798,-0.000133585843367315,-0.0268507545168304,-0.0284607755690256,-0.028359125157579,-0.028359125157579,2012,-36
0.491,-0.000358799496040317,-0.000134978783277857,-0.0271307354388492,-0.0284516040720501,-0.0284213460953732,-0.0284213460953732,2012,-36
0.492,-0.000361798703637018,-0.000137565045679169,-0.027650574181513,-0.0284959579548914,-0.0284549582223588,-0.0284549582223588,2012,-36
0.493,-0.000367200216060497,-0.000142542153255777,-0.0286509728044111,-0.0288888797506022,-0.0286071765751716,-0.0286071765751716,2012,-36
0.494,-0.000372601728483975,-0.000147504201505375,-0.0296483445025803,-0.0292172991379213,-0.0288930181579217,-0.0288930181579217,2011,-37
0.495,-0.000375,-0.000149452538566744,-0.0300399602519156,-0.0289912431254296,-0.0290284367308408,-0.0290284367308408,2011,-37
0.496,-0.000375,-0.000149000337239765,-0.0299490677851927,-0.0284559363299633,-0.0288330219852354,-0.0288330219852354,2011,-37
0.497,-0.000375,-0.000148549504146755,-0.0298584503334977,-0.0281644195790055,-0.0284978655552668,-0.0284978655552668,2012,-36
0.498,-0.000372199424046076,-0.000145303696071289,-0.029206042910329,-0.0275795322117401,-0.0280966542348219,-0.0280966542348219,2012,-36
0.499,-0.000368599712023038,-0.000141269781809038,-0.0283952261436166,-0.0271060109132346,-0.0276133961115306,-0.0276133961115306,2013,-35
0.5,-0.000365,-0.000137248073036234,-0.0275868626802831,-0.0268459776077859,-0.0272048051813893,-0.0272048051813893,2013,-35
0.501,-0.000365,-0.000136832798987713,-0.0275033925965304,-0.0274112670141118,-0.02715597000803,-0.02715597000803,2013,-35
0.502,-0.000365,-0.000136418781441608,-0.0274201750697632,-0.0279475655125163,-0.0274915124793659,-0.0274915124793659,2013,-35
0.503,-0.000364600431965443,-0.000135607053051758,-0.0272570176634033,-0.0282944275344871,-0.0278950278922735,-0.0278950278922735,2012,-36
0.504,-0.000362800575953924,-0.000133399611185334,-0.0268133218482522,-0.0282011458163994,-0.0281211553173823,-0.0281211553173823,2012,-36
0.505,-0.000361000719942405,-0.000131198848416842,-0.0263709685317853,-0.0279265302641515,-0.028084413473083,-0.028084413473083,2012,-36
0.506,-0.00036,-0.000129802671625888,-0.0260903369968035,-0.0276170429229193,-0.0278840116272192,-0.0278840116272192,2012,-36
0.507,-0.00036,-0.000129409925266959,-0.0260113949786589,-0.0273180698741761,-0.0276170531473016,-0.0276170531473016,2013,-35
0.508,-0.00036,-0.000129018367247997,-0.0259326918168475,-0.0268629890296324,-0.0272795379579443,-0.0272795379579443,2013,-35
0.509,-0.000361200503959683,-0.000129826681739518,-0.026095163029643,-0.0265490425595106,-0.0269118955455258,-0.0269118955455258,2014,-34
0.51,-0.000363000359971202,-0.000131230995815348,-0.0263774301588849,-0.026312824946599,-0.0266035867041983,-0.0266035867041983,2014,-34
0.511,-0.000364800215982721,-0.000132631060831947,-0.0266588432272213,-0.0261020748595894,-0.0263496528573367,-0.0263496528573367,2014,-34
0.512,-0.000366600071994241,-0.000134026889645772,-0.0269394048188002,-0.0259821272562112,-0.0261525042679544,-0.0261525042679544,2015,-33
0.513,-0.00036839992800576,-0.000135418495074382,-0.0272191175099508,-0.0260009662981102,-0.0260493263892405,-0.0260493263892405,2015,-33
0.514,-0.000369400647948164,-0.000136007962807874,-0.0273376005243827,-0.0260279958971708,-0.0260269896638559,-0.0260269896638559,2015,-33
0.515,-0.000364001079913607,-0.000130205041736129,-0.0261712133889619,-0.024982449595998,-0.0256925236912459,-0.0256925236912459,2015,-33
0.516,-0.00035860151187905,-0.000124419678670652,-0.0250083554128011,-0.0241800351591341,-0.0249801638747845,-0.0249801638747845,2016,-32
0.517,-0.000352002160604969,-0.000117453852349571,-0.0236082243222639,-0.0233193783886624,-0.0241914093229343,-0.0241914093229343,2017,-31
0.518,-0.000342999639899172,-0.000108109568884329,-0.0217300233457501,-0.0220969543317318,-0.0232406125519489,-0.0232406125519489,2018,-30
0.519,-0.000333997119193374,-9.87935585914467e-05,-0.0198575052768808,-0.0209203746566096,-0.0221303894379885,-0.0221303894379885,2020,-28
0.52,-0.000328999280057595,-9.35043589745073e-05,-0.018794376153876,-0.0204727411373363,-0.0212112666552862,-0.0212112666552862,2021,-27
0.521,-0.000327199424046076,-9.14243080130072e-05,-0.0183762859106144,-0.0204562508014492,-0.0207325674976622,-0.0207325674976622,2021,-27
0.522,-0.000325399568034557,-8.93505507004071e-05,-0.0179594606907818,-0.0201581423725237,-0.0204598938369726,-0.0204598938369726,2022,-26
0.523,-0.000325,-8.86812375321643e-05,-0.017824928743965,-0.0198563130802152,-0.0201697232532526,-0.0201697232532526,2022,-26
0.524,-0.000325,-8.84129130615677e-05,-0.0177709955253751,-0.0193777547272142,-0.0198154352086771,-0.0198154352086771,2022,-26
0.525,-0.000325,-8.81454004653149e-05,-0.0177172254935283,-0.0187153166070262,-0.0193225508871663,-0.0193225508871663,2023,-25
0.526,-0.000328599712023038,-9.14729634521146e-05,-0.018386065653875,-0.0186682515781981,-0.0189182131983495,-0.0189182131983495,2024,-24
0.527,-0.000332199424046076,-9.47904581696653e-05,-0.0190528820921027,-0.0185841612449967,-0.0187310293606879,-0.0187310293606879,2024,-24
0.528,-0.000335399568034557,-9.76989515373779e-05,-0.019637489259013,-0.0184903645662641,-0.0186068200946254,-0.0186068200946254,2024,-24
0.529,-0.000337199424046076,-9.92004750843187e-05,-0.0199392954919481,-0.0182851722129072,-0.0184664023349845,-0.0184664023349845,2024,-24
0.53,-0.000338999280057595,-0.000100697455443523,-0.0202401885441481,-0.0183201808227912,-0.0183614498881029,-0.0183614498881029,2024,-24
0.531,-0.000336002880806626,-9.7400907158308e-05,-0.0195775823388199,-0.0176778957078713,-0.0181291347453005,-0.0181291347453005,2025,-23
0.532,-0.000327000360100828,-8.81172982624786e-05,-0.0177115769507582,-0.0161723621775583,-0.0173573361538994,-0.0173573361538994,2025,-23
0.533,-0.00031799783939503,-7.88617789548362e-05,-0.0158512175699221,-0.0149939097777837,-0.0162200283486248,-0.0162200283486248,2027,-21
0.534,-0.00031139848812095,-7.20337980186752e-05,-0.0144787934017537,-0.0144941993398025,-0.0152738913038609,-0.0152738913038609,2028,-20
0.535,-0.000305998920086393,-6.6424444767775e-05,-0.0133513133983228,-0.014267540584247,-0.0147014417257608,-0.0147014417257608,2029,-19
0.536,-0.000300599352051836,-6.08320638413858e-05,-0.0122272448321185,-0.0139358343392868,-0.0143169838642262,-0.0143169838642262,2029,-19
0.537,-0.0003,-6.00495578173399e-05,-0.0120699611212853,-0.0143354397322311,-0.01420073589726,-0.01420073589726,2029,-19
0.538,-0.0003,-5.98678647528396e-05,-0.0120334408153208,-0.0145135118921773,-0.0143441589196601,-0.0143441589196601,2029,-19
0.539,-0.000299600431965442,-5.92877578960867e-05,-0.0119168393371134,-0.0142618262163846,-0.0143720500315966,-0.0143720500315966,2029,-19
0.54,-0.000296000719942404,-5.55141036585719e-05,-0.011158334835373,-0.0130842969252922,-0.0139239805054695,-0.0139239805054695,2030,-18
0.541,-0.000292401007919366,-5.17518674369043e-05,-0.0104021253548178,-0.011733074016379,-0.0129526375345503,-0.0129526375345503,2031,-17
0.542,-0.000290599567879006,-4.97965661335587e-05,-0.0100091097928453,-0.0106532152697721,-0.0118247574759126,-0.0118247574759126,2032,-16
0.543,-0.000292400072020166,-5.14436759685029e-05,-0.0103401788696691,-0.010269387987583,-0.0109507473174286,-0.0109507473174286,2033,-15
0.544,-0.000294200576161325,-5.30858021125699e-05,-0.0106702462246265,-0.00992264916211661,-0.010402844277314,-0.010402844277314,2034,-14
0.545,-0.000293999280057595,-5.27241878422419e-05,-0.0105975617562906,-0.00931201900321144,-0.00989931210125632,-0.00989931210125632,2035,-13
0.546,-0.000292199424046076,-5.07675262033809e-05,-0.0102042727668796,-0.00861037023194578,-0.00929795473992445,-0.00929795473992445,2035,-13
0.547,-0.000290399568034557,-4.88167848720505e-05,-0.00981217375928215,-0.00817946937917298,-0.00871908619225453,-0.00871908619225453,2036,-12
0.548,-0.000288599712023038,-4.68719459350661e-05,-0.0094212611329483,-0.00800458312939828,-0.00831712469355652,-0.00831712469355652,2037,-11
0.549,-0.000286799856011519,-4.49329915334433e-05,-0.0090315312982221,-0.0080372653162003,-0.00812725259691727,-0.00812725259691727,2037,-11
0.55,-0.000285,-4.29999038622338e-05,-0.008642980676309,-0.00820446687116769,-0.00812315868458825,-0.00812315868458825,2037,-11
0.551,-0.000281400287976962,-3.92755320877563e-05,-0.00789438194963901,-0.00806907069269871,-0.00813188310596322,-0.00813188310596322,2037,-11
0.552,-0.000277800575953924,-3.55624292142604e-05,-0.00714804827206634,-0.00792203543976673,-0.00804449205485393,-0.00804449205485393,2037,-11
0.553,-0.000273401727861771,-3.10626340565457e-05,-0.00624358944536569,-0.00752640717519844,-0.00783919029371845,-0.00783919029371845,2037,-11
0.554,-0.000266202303815695,-2.37801149362381e-05,-0.00477980310218386,-0.00644094600769738,-0.00729078407431426,-0.00729078407431426,2038,-10
0.555,-0.000259002879769618,-1.65196306695471e-05,-0.00332044576457896,-0.00521322271718187,-0.00635251502824078,-0.00635251502824078,2039,-9
0.556,-0.000254200576161325,-1.16746085170318e-05,-0.0023465963119234,-0.00428993715651761,-0.0053262745850414,-0.0053262745850414,2040,-8
0.557,-0.000252400072020166,-9.84150420508116e-06,-0.00197814234522131,-0.00375824336802202,-0.00449154104480321,-0.00449154104480321,2041,-7
0.558,-0.000250599567879006,-8.01394635095785e-06,-0.00161080321654253,-0.00302385211420759,-0.00378609661936192,-0.00378609661936192,2042,-6
0.559,-0.00025,-7.39103758719712e-06,-0.00148559855502662,-0.00238626029615641,-0.00309312199488761,-0.00309312199488761,2043,-5
0.56,-0.00025,-7.36867438723586e-06,-0.00148110355183441,-0.00179020956784169,-0.0024489636212411,-0.0024489636212411,2044,-4
0.561,-0.00025,-7.34637885202487e-06,-0.001476622149257,-0.00119605041255996,-0.00183624975518964,-0.00183624975518964,2045,-3
0.562,-0.000254800215982722,-1.21171047081402e-05,-0.00243553804633617,-0.00162099100575175,-0.00156206446927055,-0.00156206446927055,2045,-3
0.563,-0.000260199784017279,-1.74718410067658e-05,-0.00351184004235993,-0.00223988993767907,-0.00179820293237623,-0.00179820293237623,2045,-3
0.564,-0.000264600431965442,-2.18129665192838e-05,-0.00438440627037604,-0.00278860251971369,-0.00225720504540197,-0.00225720504540197,2044,-4
0.565,-0.000261000719942404,-1.81527004553751e-05,-0.00364869279153039,-0.00195074390538157,-0.00232930002434149,-0.00232930002434149,2044,-4
0.566,-0.000257401007919366,-1.45035093266067e-05,-0.00291520537464794,-0.00140892708717073,-0.00191297660891499,-0.00191297660891499,2045,-3
0.567,-0.000253800864241988,-1.08649286220331e-05,-0.00218385065302865,-0.0011149838603518,-0.00149565536843183,-0.00149565536843183,2045,-3
0.568,-0.000250199855959668,-7.23649394188981e-06,-0.00145453528231985,-0.000990747681301697,-0.00121181588278755,-0.00121181588278755,2045,-3
0.569,-0.000246598847677349,-3.61903788407677e-06,-0.000727426614699431,-0.00094118907135184,-0.00105422132736397,-0.00105422132736397,2046,-2
0.57,-0.000241997840172786,9.85959133745006e-07,0.000198177785882746,-0.000673081112575376,-0.000895832714927841,-0.000895832714927841,2046,-2
0.571,-0.000236598272138229,6.37437514666513e-06,0.00128124940447969,-0.000152691780325635,-0.000586251773596216,-0.000586251773596216,2046,-2
0.572,-0.000231198704103671,1.17464873289864e-05,0.00236104395312627,0.000521852420465072,-9.21286366308732e-05,-9.21286366308732e-05,2047,-1
0.573,-0.000234200863930886,8.71332778190691e-06,0.00175137888416329,-0.000245183876596472,5.56039970647508e-05,5.56039970647508e-05,2047,-1
0.574,-0.000239600431965443,3.29556445607989e-06,0.000662408455672057,-0.00114888571791385,-0.000426856768524936,-0.000426856768524936,2046,-2
0.575,-0.000245,-2.10580624243693e-06,-0.000423267054729823,-0.00173515553618424,-0.00107760283168142,-0.00107760283168142,2046,-2
0.576,-0.000245,-2.09943466530398e-06,-0.000421986367726099,-0.00104190750994797,-0.00127691609538955,-0.00127691609538955,2045,-3
0.577,-0.000245,-2.09308236677052e-06,-0.000420709555720874,-0.000315282847132143,-0.000893377046127052,-0.000893377046127052,2046,-2
0.578,-0.000245799136069114,-2.88467637718186e-06,-0.000579819951813555,0.000187226049383416,-0.000361743297888149,-0.000361743297888149,2047,-1
0.579,-0.000249398848092153,-6.47021432340097e-06,-0.0013005130790036,1.70829549499154e-06,-6.93006887039484e-05,-6.93006887039484e-05,2047,-1
0.58,-0.000252998560115191,-1.0044903440736e-05,-0.00201902559158794,-0.000345813898651016,-0.000135167427725784,-0.000135167427725784,2047,-1
0.581,-0.000255,-1.20129223773361e-05,-0.00241459739784456,-0.000582109802416302,-0.000345933083371858,-0.000345933083371858,2047,-1
0.582,-0.000255,-1.19765746545605e-05,-0.00240729150556666,-0.000659428130759726,-0.000522109931587343,-0.000522109931587343,2046,-2
0.583,-0.000255,-1.19403369097661e-05,-0.00240000771886298,-0.000969760035859459,-0.000709599772434939,-0.000709599772434939,2046,-2
0.584,-0.000251398488120951,-8.30814551189588e-06,-0.00166993724789107,-0.000749616132048319,-0.00080581022853683,-0.00080581022853683,2046,-2
0.585,-0.000245998920086393,-2.89160815360309e-06,-0.000581213238874221,-0.000322687376701563,-0.000632952232279209,-0.000632952232279209,2046,-2
0.586,-0.000240599352051836,2.50854028681276e-06,0.000504216597649365,3.41473622652805e-05,-0.000319694395701602,-0.000319694395701602,2047,-1
0.587,-0.000243200143988481,-9.59071545774542e-08,-1.92773380700683e-05,-0.00113576637873075,-0.000467845108862584,-0.000467845108862584,2046,-2
0.588,-0.000246799856011519,-3.6898831317273e-06,-0.000741666509477188,-0.0022600603072947,-0.00125635038716396,-0.00125635038716396,2045,-3
0.589,-0.000250199784017279,-7.07350297671658e-06,-0.00142177409832003,-0.00305269448915724,-0.0021538035993832,-0.0021538035993832,2044,-4
0.59,-0.000251999640028798,-8.84923362974102e-06,-0.00177869595957795,-0.00324967910797597,-0.00279315180398794,-0.00279315180398794,2044,-4
0.591,-0.000253799496040317,-1.06195914214854e-05,-0.00213453787571858,-0.00323014388420777,-0.00307953622200328,-0.00307953622200328,2043,-5
0.592,-0.000253800864241988,-1.05888256578851e-05,-0.0021283539572349,-0.00271038182169099,-0.00300948919055847,-0.00300948919055847,2043,-5
0.593,-0.000250199855959669,-6.96122638761817e-06,-0.00139920650391125,-0.00144655627835609,-0.00241268140816428,-0.00241268140816428,2044,-4
0.594,-0.00024659884767735,-3.34460321196631e-06,-0.000672265245605229,-0.000271903381087913,-0.00141687911429103,-0.00141687911429103,2045,-3
0.595,-0.000247001439884809,-3.73646652588358e-06,-0.000751029771702599,-2.2311167966142e-05,-0.000602922806750002,-0.000602922806750002,2046,-2
0.596,-0.000250601151907847,-7.31942719479946e-06,-0.00147120486615469,-0.000514427278956226,-0.000388465381564862,-0.000388465381564862,2047,-1
0.597,-0.000254200863930885,-1.0891546832947e-05,-0.00218920091342235,-0.00109868965249143,-0.00065647376884625,-0.00065647376884625,2046,-2
0.598,-0.000253599712023038,-1.02583496274327e-05,-0.00206192827511396,-0.000966708694100261,-0.000897643899903682,-0.000897643899903682,2046,-2
0.599,-0.000251799856011519,-8.43017766546976e-06,-0.00169446571075942,-0.000760503759158284,-0.000875824878573932,-0.000875824878573932,2046,-2
0.6,-0.00025,-6.60753723743111e-06,-0.00132811498472365,-0.000698188894937985,-0.0007819283711856,-0.0007819283711856,2046,-2
0.601,-0.00025,-6.58754468905765e-06,-0.00132409648250059,-0.00107885428540269,-0.000850257357714276,-0.000850257357714276,2046,-2
0.602,-0.00025,-6.56761263250982e-06,-0.00132009013913447,-0.0014648646064002,-0.0011205151065522,-0.0011205151065522,2046,-2
0.603,-0.000251198704103671,-7.74463151777171e-06,-0.00155667093507211,-0.00203649846944199,-0.00152446794717329,-0.00152446794717329,2045,-3
0.604,-0.000256598272138229,-1.31125976898931e-05,-0.00263563213566852,-0.00331946053313769,-0.00226389843058133,-0.00226389843058133,2044,-4
0.605,-0.000261997840172786,-1.84643219068796e-05,-0.0037113287032828,-0.00441094546305973,-0.00329037571745145,-0.00329037571745145,2043,-5
0.606,-0.000264200576161325,-2.06078576234031e-05,-0.00414217938230402,-0.00469907533747676,-0.00410103897566735,-0.00410103897566735,2042,-6
0.607,-0.000262400072020166,-1.87477238134e-05,-0.0037682924864934,-0.00410728993626771,-0.00429472080977304,-0.00429472080977304,2042,-6
0.608,-0.000260599567879006,-1.68932182448794e-05,-0.00339553686722077,-0.00351408504417853,-0.00398444304083079,-0.00398444304083079,2042,-6
0.609,-0.00026,-1.62434433029221e-05,-0.00326493210388733,-0.00318404550505054,-0.00357714960094858,-0.00357714960094858,2043,-5
0.61,-0.00026,-1.61942952142597e-05,-0.00325505333806619,-0.0030068646638927,-0.0032683710647454,-0.0032683710647454,2043,-5
0.611,-0.00026,-1.61452958338837e-05,-0.00324520446261062,-0.00287671619753972,-0.00305902450447028,-0.00305902450447028,2043,-5
0.612,-0.000261600071994241,-1.76940960222816e-05,-0.00355651330047859,-0.0031188217030447,-0.0030197581235869,-0.0030197581235869,2043,-5
0.613,-0.00026339992800576,-1.94376917492982e-05,-0.00390697604160893,-0.00344086809813265,-0.00318648041653676,-0.00318648041653676,2043,-5
0.614,-0.000265199784017279,-2.11760118462784e-05,-0.00425637838110197,-0.00380171731485475,-0.00346520624343223,-0.00346520624343223,2043,-5
0.615,-0.000266999640028798,-2.29090722757945e-05,-0.0046047235274347,-0.0041969386164865,-0.00380759196281582,-0.00380759196281582,2042,-6
0.616,-0.000268799496040317,-2.46368889521198e-05,-0.00495201467937608,-0.00461759032815217,-0.00419199741762577,-0.00419199741762577,2042,-6
0.617,-0.000269400432120994,-2.51623716077062e-05,-0.00505763669314894,-0.00481779305533202,-0.0045289809266747,-0.0045289809266747,2041,-7
0.618,-0.000267599927979834,-2.32884571199895e-05,-0.0046809798811179,-0.00456696401814966,-0.0046337229844094,-0.0046337229844094,2041,-7
0.619,-0.000265799423838675,-2.14202125702085e-05,-0.00430546272661191,-0.00435137033486573,-0.00452182823575446,-0.00452182823575446,2041,-7
0.62,-0.000263999280057595,-1.95579806176324e-05,-0.0039311541041441,-0.00414663106276731,-0.00434693878899937,-0.00434693878899937,2042,-6
0.621,-0.000262199424046076,-1.77016705891334e-05,-0.00355803578841581,-0.00392876681884479,-0.00414870811708057,-0.00414870811708057,2042,-6
0.622,-0.000260399568034557,-1.58509772324302e-05,-0.00318604642371846,-0.00367748529006721,-0.00392718115385969,-0.00392718115385969,2042,-6
0.623,-0.000264200863930885,-1.9598561706124e-05,-0.00393931090293093,-0.00447189481173244,-0.00402173813914183,-0.00402173813914183,2042,-6
0.624,-0.000269600431965443,-2.49306612210946e-05,-0.00501106290544001,-0.00544450313044141,-0.00462203354423484,-0.00462203354423484,2041,-7
0.625,-0.000275,-3.02466273033422e-05,-0.00607957208797179,-0.00628281096081745,-0.00541794604512881,-0.00541794604512881,2040,-8
0.626,-0.000276799856011519,-3.19522426028822e-05,-0.00642240076317932,-0.00632567988124841,-0.00598608667070837,-0.00598608667070837,2040,-8
0.627,-0.000278599712023038,-3.3652697190472e-05,-0.00676419213528488,-0.00637757830466221,-0.00622040873625128,-0.00622040873625128,2039,-9
0.628,-0.000280799136069115,-3.57469702253124e-05,-0.00718514101528779,-0.00655541300854445,-0.00637815676211798,-0.00637815676211798,2039,-9
0.629,-0.000284398848092153,-3.9233076117528e-05,-0.00788584829962313,-0.00707813892189697,-0.00665932291795306,-0.00665932291795306,2039,-9
0.63,-0.000287998560115191,-4.27086340342755e-05,-0.00858443544088938,-0.00767044518543537,-0.0071176364664871,-0.0071176364664871,2038,-10
0.631,-0.000287601728483976,-4.21831784447587e-05,-0.0084788188673965,-0.00756173736447859,-0.00743715877960882,-0.00743715877960882,2038,-10
0.632,-0.000282200216060497,-3.66622033216341e-05,-0.00736910286764845,-0.00660991393925522,-0.00721194523618452,-0.00721194523618452,2038,-10
0.633,-0.000276798703637019,-3.11579331156748e-05,-0.00626274455625064,-0.00583545374665395,-0.00657780331744738,-0.00657780331744738,2039,-9
0.634,-0.000273799496040317,-2.80689877600705e-05,-0.00564186653977417,-0.00564873323827121,-0.00604209189117507,-0.00604209189117507,2040,-8
0.635,-0.000271999640028798,-2.61869258188863e-05,-0.00526357208959615,-0.00571078109658288,-0.00580982604261865,-0.00580982604261865,2040,-8
0.636,-0.000270199784017279,-2.43105584675392e-05,-0.00488642225197539,-0.0057082749751611,-0.00574553244855028,-0.00574553244855028,2040,-8
0.637,-0.000266799856011519,-2.08422171653662e-05,-0.00418928565023861,-0.00528254934377257,-0.00558519892990704,-0.00558519892990704,2040,-8
0.638,-0.000263200143988481,-1.71848883158415e-05,-0.00345416255148413,-0.00470206790758601,-0.00520514104258156,-0.00520514104258156,2041,-7
0.639,-0.000260799136069114,-1.47355161472882e-05,-0.00296183874560493,-0.00423020084569306,-0.00473141882082385,-0.00473141882082385,2041,-7
0.64,-0.000267998560115191,-2.18794629523047e-05,-0.00439777205341324,-0.00549509252315553,-0.00481553924620875,-0.00481553924620875,2041,-7
0.641,-0.000275197984161267,-2.90017941845374e-05,-0.00582936063109201,-0.00651232148251078,-0.00557718524404491,-0.00557718524404491,2040,-8
0.642,-0.00028,-3.37087939805958e-05,-0.00677546759009975,-0.0068889324068446,-0.00629734018034797,-0.00629734018034797,2039,-9
0.643,-0.00028,-3.36068006553897e-05,-0.00675496693173334,-0.0062822377514086,-0.00648211255135991,-0.00648211255135991,2039,-9
0.644,-0.00028,-3.35051159332857e-05,-0.00673452830259042,-0.00578504715495871,-0.00619463171919565,-0.00619463171919565,2039,-9
0.645,-0.000281000719942405,-3.44029448744664e-05,-0.00691499191976775,-0.00564967260945035,-0.00588868823394493,-0.00588868823394493,2040,-8
0.646,-0.000282800575953924,-3.609598432659e-05,-0.00725529284964459,-0.00585255080950889,-0.00580049815415948,-0.00580049815415948,2040,-8
0.647,-0.000284600431965443,-3.7783901117739e-05,-0.00759456412466553,-0.00623099685400629,-0.00595516205005571,-0.00595516205005571,2040,-8
0.648,-0.000282199424046076,-3.52722021328411e-05,-0.00708971262870106,-0.00594683177297933,-0.00604090068046411,-0.00604090068046411,2040,-8
0.649,-0.000278599712023038,-3.15712122092847e-05,-0.00634581365406623,-0.00560732104741131,-0.00587178255849694,-0.00587178255849694,2040,-8
0.65,-0.000275,-2.78814204398086e-05,-0.00560416550840153,-0.00539597359552356,-0.00563451638091392,-0.00563451638091392,2040,-8
0.651,-0.000275,-2.77970591071617e-05,-0.0055872088805395,-0.00593339914602087,-0.00565385611800257,-0.00565385611800257,2040,-8
0.652,-0.000275,-2.77129530281687e-05,-0.00557030355866192,-0.00638383703299629,-0.00597742148435258,-0.00597742148435258,2040,-8
0.653,-0.000274200863930885,-2.68311743418269e-05,-0.00539306604270721,-0.00653393548403056,-0.0062860527498403,-0.0062860527498403,2039,-9
0.654,-0.000270601151907847,-2.31557245931298e-05,-0.00465430064321908,-0.00597107650308348,-0.00626454841888948,-0.00626454841888948,2039,-9
0.655,-0.000267001439884809,-1.94913957211307e-05,-0.00391777053994727,-0.00527219307023787,-0.00585242429566589,-0.00585242429566589,2040,-8
0.656,-0.000265799423838675,-1.82322226774228e-05,-0.00366467675816198,-0.00491013591074859,-0.00536443724106803,-0.00536443724106803,2040,-8
0.657,-0.000267599927979834,-1.9974837333717e-05,-0.00401494230407711,-0.0049914846896111,-0.0050992917661397,-0.0050992917661397,2041,-7
0.658,-0.000269400432120994,-2.17121793284188e-05,-0.00436414804501217,-0.00493241512008529,-0.00501125211146566,-0.00501125211146566,2041,-7
0.659,-0.00027360151187905,-2.58412084988577e-05,-0.00519408290827041,-0.00526757579843154,-0.00506813887287127,-0.00506813887287127,2041,-7
0.66,-0.000279001079913607,-3.11544195212631e-05,-0.00626203832377389,-0.0057993610979589,-0.0053664270621815,-0.0053664270621815,2040,-8
0.661,-0.000284400647948164,-3.64515542622089e-05,-0.007326762406704,-0.00635185376182286,-0.0058210298619952,-0.0058210298619952,2040,-8
0.662,-0.000286600071994241,-3.85373587431256e-05,-0.00774600910736824,-0.0063689461581362,-0.00616677992480567,-0.00616677992480567,2039,-9
0.663,-0.00028839992800576,-4.02178886222729e-05,-0.00808379561307685,-0.00649363091203984,-0.00633633672626872,-0.00633633672626872,2039,-9
0.664,-0.000289600431965442,-4.12948883743851e-05,-0.0083002725632514,-0.00670830239865459,-0.00650597129619083,-0.00650597129619083,2039,-9
0.665,-0.000286000719942404,-3.75756754969964e-05,-0.00755271077489627,-0.00618706339269566,-0.00646860693688589,-0.00646860693688589,2039,-9
0.666,-0.000282401007919366,-3.38677159112186e-05,-0.00680741089815493,-0.00589309488770302,-0.00619390963131759,-0.00619390963131759,2039,-9
0.667,-0.000279400432120994,-3.07692053836115e-05,-0.00618461028210591,-0.00586486540159032,-0.00599203175524649,-0.00599203175524649,2040,-8
0.668,-0.000277599927979834,-2.88783261946062e-05,-0.00580454356511585,-0.00611843227233154,-0.00599178629480703,-0.00599178629480703,2040,-8
0.669,-0.000275799423838675,-2.69931682739489e-05,-0.00542562682306373,-0.00631149039875043,-0.00613484721835444,-0.00613484721835444,2039,-9
0.67,-0.000277001439884809,-2.81116921073844e-05,-0.00565045011358426,-0.00695637013955387,-0.00645477225091707,-0.00645477225091707,2039,-9
0.671,-0.000280601151907847,-3.162090020268e-05,-0.00635580094073869,-0.00784246418137064,-0.00706031385959988,-0.00706031385959988,2038,-10
0.672,-0.000284200863930886,-3.51194904217419e-05,-0.00705901757477011,-0.00845789347490319,-0.00775894524968772,-0.00775894524968772,2037,-11
0.673,-0.000283599712023038,-3.44129862764727e-05,-0.00691701024157101,-0.00801483291149181,-0.00806498239296322,-0.00806498239296322,2037,-11
0.674,-0.000281799856011519,-3.25117291809272e-05,-0.00653485756536637,-0.00722109295475243,-0.00777843145716764,-0.00777843145716764,2037,-11
0.675,-0.00028,-3.06162247543547e-05,-0.0061538611756253,-0.00639347431083198,-0.00715590080051672,-0.00715590080051672,2038,-10
0.676,-0.000287199424046076,-3.77121210038279e-05,-0.00758013632176941,-0.00735178289562306,-0.00697431605866467,-0.00697431605866467,2038,-10
0.677,-0.000294398848092153,-4.47865470679774e-05,-0.00900209596066346,-0.00826618923122428,-0.00750936093351018,-0.00750936093351018,2038,-10
0.678,-0.0003,-5.02437137321879e-05,-0.0100989864601698,-0.00889735211568443,-0.00819680307450004,-0.00819680307450004,2037,-11
0.679,-0.0003,-5.00916903926048e-05,-0.0100684297689136,-0.00854958251017636,-0.00853440835554514,-0.00853440835554514,2036,-12
0.68,-0.0003,-4.99401270328692e-05,-0.0100379655336067,-0.00843506408410538,-0.00850743075400394,-0.00850743075400394,2036,-12
0.681,-0.000300799423838675,-5.05872366840941e-05,-0.0101680345735029,-0.00870403708047706,-0.0085472511567522,-0.0085472511567522,2036,-12
0.682,-0.000302599927979834,-5.22319541724408e-05,-0.0104986227886606,-0.00934804444710838,-0.00885416757152177,-0.00885416757152177,2036,-12
0.683,-0.000304400432120994,-5.38716952084777e-05,-0.010828210736904,-0.010100575938266,-0.00941195130303807,-0.00941195130303807,2035,-13
0.684,-0.000302598992080633,-5.19099799027969e-05,-0.0104339059604622,-0.0101928851684907,-0.00988296364299981,-0.00988296364299981,2035,-13
0.685,-0.000298999280057595,-4.81586487454433e-05,-0.00967988839783411,-0.00996149072879398,-0.0100074664030271,-0.0100074664030271,2035,-13
0.686,-0.000295399568034557,-4.44186680605779e-05,-0.00892815228017617,-0.00971097325638557,-0.00989770075531086,-0.00989770075531086,2035,-13
0.687,-0.000296600071994241,-4.54829574361754e-05,-0.00914207444467125,-0.0103111012872672,-0.00997035236846185,-0.00997035236846185,2035,-13
0.688,-0.00029839992800576,-4.71424718881123e-05,-0.00947563684951058,-0.0108235161148341,-0.0103530166842239,-0.0103530166842239,2034,-14
0.689,-0.000300399568034558,-4.89964468884608e-05,-0.00984828582458062,-0.0111519479797408,-0.0107598855067005,-0.0107598855067005,2034,-14
0.69,-0.000303999280057596,-5.24424635925882e-05,-0.0105409351821102,-0.0115892125332347,-0.0111513565001539,-0.0111513565001539,2033,-15
0.691,-0.000307598992080634,-5.58780536198499e-05,-0.0112314887775898,-0.0118489246743231,-0.0115152745152981,-0.0115152745152981,2033,-15
0.692,-0.00031,-5.81063578854203e-05,-0.0116793779349695,-0.011769126900417,-0.0117035766127801,-0.0117035766127801,2032,-16
0.693,-0.00031,-5.79305443971135e-05,-0.0116440394238198,-0.0112130746626029,-0.0115673741568377,-0.0115673741568377,2033,-15
0.694,-0.00031,-5.77552628709497e-05,-0.0116088078370609,-0.0107571198527247,-0.0111941197342903,-0.0111941197342903,2033,-15
0.695,-0.000308999280057595,-5.65813057034322e-05,-0.0113728424463899,-0.0102560156409756,-0.010753381280803,-0.010753381280803,2034,-14
0.696,-0.000307199424046076,-5.46129735112848e-05,-0.0109772076757682,-0.00978924486169568,-0.0102849511337085,-0.0102849511337085,2034,-14
0.697,-0.000305399568034557,-5.26505969384783e-05,-0.0105827699846341,-0.00952041271564675,-0.00988102655355641,-0.00988102655355641,2035,-13
0.698,-0.000302199424046076,-4.92959884267166e-05,-0.00990849367377004,-0.00914443712227309,-0.00952935883907148,-0.00952935883907148,2035,-13
0.699,-0.000298599712023038,-4.55525664720136e-05,-0.00915606586087474,-0.00882462887377464,-0.0091801115050666,-0.0091801115050666,2036,-12
0.7,-0.000295,-4.18204710587772e-05,-0.00840591468281423,-0.00857595844290804,-0.008872535962294,-0.008872535962294,2036,-12
0.701,-0.000291400287976962,-3.80996679160803e-05,-0.00765803325113214,-0.00832466757644093,-0.00860188022343534,-0.00860188022343534,2036,-12
0.702,-0.000287800575953923,-3.43901228766894e-05,-0.00691241469821458,-0.0080031223251372,-0.00832112043327747,-0.00832112043327747,2037,-11
0.703,-0.000285,-3.14897289654295e-05,-0.00632943552205133,-0.0077145560542507,-0.00802478630277521,-0.00802478630277521,2037,-11
0.704,-0.000285,-3.13944499065326e-05,-0.00631028443121306,-0.00780644406213371,-0.00785537204342713,-0.00785537204342713,2037,-11
0.705,-0.000285,-3.12994591352572e-05,-0.0062911912861867,-0.00768725502666044,-0.00778580633892069,-0.00778580633892069,2037,-11
0.706,-0.000285799423838675,-3.20029702022086e-05,-0.00643259701064393,-0.00754229023304315,-0.00767616934592781,-0.00767616934592781,2037,-11
0.707,-0.000287599927979834,-3.37039184514686e-05,-0.00677448760874519,-0.00745145032205997,-0.00756123404568662,-0.00756123404568662,2038,-10
0.708,-0.000289400432120994,-3.53997201099593e-05,-0.00711534374210181,-0.00727386935812937,-0.00743394288825589,-0.00743394288825589,2038,-10
0.709,-0.000291200503959683,-3.70899591013587e-05,-0.00745508177937311,-0.00708668764022645,-0.0072713375106418,-0.0072713375106418,2038,-10
0.71,-0.000293000359971202,-3.87748684045356e-05,-0.00779374854931165,-0.00696262422787701,-0.00711320829487893,-0.00711320829487893,2038,-10
0.711,-0.000294800215982721,-4.04546796462806e-05,-0.0081313906089024,-0.0069602517823096,-0.00701591964758046,-0.00701591964758046,2038,-10
0.712,-0.000299800215982721,-4.53247108727667e-05,-0.00911026688542611,-0.00774155048476509,-0.0072306513693477,-0.0072306513693477,2038,-10
0.713,-0.000305199784017278,-5.05789702994873e-05,-0.010166373030197,-0.00872708135506367,-0.00787402608124942,-0.00787402608124942,2037,-11
0.714,-0.000309200863930886,-5.44209594105037e-05,-0.0109386128415113,-0.00956023739409236,-0.00868789357697287,-0.00868789357697287,2036,-12
0.715,-0.00030200143988481,-4.7067764570517e-05,-0.00946062067867391,-0.0083318376808118,-0.00885337047471595,-0.00885337047471595,2036,-12
0.716,-0.000294802015838733,-3.9736818428987e-05,-0.00798710050422638,-0.00735282181638826,-0.00820526744515446,-0.00820526744515446,2037,-11
0.717,-0.000290599567879006,-3.54204957508054e-05,-0.00711951964591188,-0.00712208389686744,-0.00758487347815022,-0.00758487347815022,2038,-10
0.718,-0.000292400072020166,-3.71111035294192e-05,-0.00745933180941326,-0.00808215839506553,-0.00759592967546834,-0.00759592967546834,2038,-10
0.719,-0.000294200576161325,-3.87965960046181e-05,-0.00779811579692824,-0.00888514802137614,-0.00816498322210455,-0.00816498322210455,2037,-11
0.72,-0.000296000719942405,-4.04766288389648e-05,-0.00813580239663192,-0.00947920794099309,-0.00881703114459177,-0.00881703114459177,2036,-12
0.721,-0.000297800575953924,-4.21512910324968e-05,-0.00847240949753186,-0.0098447977350845,-0.00935867966603217,-0.00935867966603217,2035,-13
0.722,-0.000299600431965443,-4.38208861694674e-05,-0.00880799812006294,-0.00999492000726098,-0.00971840992573766,-0.00971840992573766,2035,-13
0.723,-0.000301400287976962,-4.5485429581364e-05,-0.00914257134585417,-0.00997084718804185,-0.00988794433081058,-0.00988794433081058,2035,-13
0.724,-0.000303200143988481,-4.71449365532851e-05,-0.00947613224721031,-0.00983445024927667,-0.00989737022045717,-0.00989737022045717,2035,-13
0.725,-0.000305,-4.8799422324081e-05,-0.00980868388714028,-0.00965822536886405,-0.00980055457213229,-0.00980055457213229,2035,-13
0.726,-0.000306799856011519,-5.04489020864931e-05,-0.0101402293193851,-0.00951460726980783,-0.0096632864613654,-0.0096632864613654,2035,-13
0.727,-0.000308599712023038,-5.20933909872943e-05,-0.0104707715884462,-0.0094660815182431,-0.00955242616178852,-0.00955242616178852,2035,-13
0.728,-0.000311198704103671,-5.45308312161044e-05,-0.010960697074437,-0.00971334707354592,-0.00957632881185646,-0.00957632881185646,2035,-13
0.729,-0.000316598272138229,-5.97572355131931e-05,-0.0120112043381518,-0.0106577966762568,-0.00996686923688525,-0.00996686923688525,2035,-13
0.73,-0.000321997840172786,-6.49678261815462e-05,-0.0130585330624908,-0.0117141275067761,-0.010748339015495,-0.010748339015495,2034,-14
0.731,-0.000322601728483976,-6.53742265340757e-05,-0.0131402195333492,-0.0119369143497946,-0.0114388402416426,-0.0114388402416426,2033,-15
0.732,-0.000317200216060497,-5.97830818252043e-05,-0.0120163994468661,-0.0111353008274043,-0.0115011911050765,-0.0115011911050765,2033,-15
0.733,-0.000311798703637019,-5.42088543469196e-05,-0.0108959797237308,-0.0105166295935857,-0.0110683539931652,-0.0110683539931652,2033,-15
0.734,-0.000307598992080634,-4.98514756239122e-05,-0.0100201466004063,-0.010233375928689,-0.0106238980751986,-0.0106238980751986,2034,-14
0.735,-0.000303999280057595,-4.61063729212601e-05,-0.00926738095717328,-0.0100616283396545,-0.0103185160617198,-0.0103185160617198,2034,-14
0.736,-0.000300399568034557,-4.23726018455448e-05,-0.00851689297095451,-0.00979632779856201,-0.0100688122203022,-0.0100688122203022,2035,-13
0.737,-0.000296799856011519,-3.86501281104522e-05,-0.00776867575020089,-0.00937812461201373,-0.00976010323631864,-0.00976010323631864,2035,-13
0.738,-0.000293200143988481,-3.49389175334082e-05,-0.00702272242421505,-0.00877325219860606,-0.0093213757805438,-0.0093213757805438,2035,-13
0.739,-0.000290799136069114,-3.24358266682814e-05,-0.00651960116032457,-0.00821018520871259,-0.00878954432100247,-0.00878954432100247,2036,-12
0.74,-0.000297998560115191,-3.95262173143842e-05,-0.00794476968019123,-0.00933299108536153,-0.00877803395307592,-0.00877803395307592,2036,-12
0.741,-0.000305197984161267,-4.65951544335699e-05,-0.00936562604114754,-0.0101789476325884,-0.00940491562352404,-0.00940491562352404,2035,-13
0.742,-0.000311798703637019,-5.30449041236284e-05,-0.0106620257288493,-0.0107302204773298,-0.0100777800026491,-0.0100777800026491,2034,-14
0.743,-0.000317200216060497,-5.82777458653055e-05,-0.0117138269189264,-0.0109935457008321,-0.0105804101862592,-0.0105804101862592,2034,-14
0.744,-0.000322601728483976,-6.34947545003512e-05,-0.0127624456545706,-0.0113326675747526,-0.0109539335526266,-0.0109539335526266,2033,-15
0.745,-0.000326000719942405,-6.6696486502715e-05,-0.0134059937870457,-0.0114480732343875,-0.0112337007654108,-0.0112337007654108,2033,-15
0.746,-0.000327800575953924,-6.82918147850102e-05,-0.013726654771787,-0.0115083596621342,-0.0113904415877506,-0.0113904415877506,2033,-15
0.747,-0.000329600431965443,-6.98823160528355e-05,-0.0140463455266199,-0.0118662031878943,-0.0115807235347145,-0.0115807235347145,2033,-15
0.748,-0.000325799136069115,-6.58753267583088e-05,-0.0132409406784201,-0.0114012585854912,-0.0116147026064954,-0.0116147026064954,2033,-15
0.749,-0.000320399568034557,-6.02846073084988e-05,-0.0121172060690083,-0.0109124107744855,-0.0113211975254011,-0.0113211975254011,2033,-15
0.75,-0.000315,-5.47108038025611e-05,-0.0109968715643148,-0.0106275759266267,-0.0109678615158851,-0.0109678615158851,2033,-15
0.751,-0.000309600431965443,-4.91538650576096e-05,-0.00987992687657952,-0.0104175446391554,-0.0106824120075556,-0.0106824120075556,2034,-14
0.752,-0.000304200863930885,-4.3613740045623e-05,-0.00876636174917022,-0.0101529128371206,-0.0104278073476725,-0.0104278073476725,2034,-14
0.753,-0.000300399568034557,-3.96862320703314e-05,-0.00797693264613662,-0.010033687942992,-0.0102133798107391,-0.0102133798107391,2034,-14
0.754,-0.000302199424046076,-4.13632857820742e-05,-0.00831402044219691,-0.0107378323863207,-0.0103238800376091,-0.0103238800376091,2034,-14
0.755,-0.000303999280057595,-4.30352652011943e-05,-0.00865008830544005,-0.011057865996086,-0.0106918089822208,-0.0106918089822208,2034,-14
0.756,-0.000305799423838675,-4.4702473015279e-05,-0.00898519707607108,-0.0110244531564024,-0.0109157516706973,-0.0109157516706973,2033,-15
0.757,-0.000307599927979834,-4.6364996142563e-05,-0.00931936422465517,-0.0107140880588552,-0.0108859561174483,-0.0108859561174483,2033,-15
0.758,-0.000309400432120994,-4.80224889426843e-05,-0.00965252027747954,-0.0102352172827278,-0.0106223000618991,-0.0106223000618991,2034,-14
0.759,-0.000312401007919366,-5.08732227536382e-05,-0.0102255177734813,-0.00994541760434953,-0.0102812855629501,-0.0102812855629501,2034,-14
0.76,-0.000316000719942405,-5.43135608621071e-05,-0.0109170257332835,-0.00983055266919931,-0.0100291699051452,-0.0100291699051452,2035,-13
0.761,-0.000319600431965443,-5.77434894755428e-05,-0.0116064413845841,-0.00987053394848477,-0.00991466567674573,-0.00991466567674573,2035,-13
0.762,-0.000323200143988481,-6.11630400901481e-05,-0.0122937710581198,-0.0101426080800001,-0.00997357935462822,-0.00997357935462822,2035,-13
0.763,-0.000326799856011519,-6.45722441068271e-05,-0.0129790210654723,-0.0106863245805061,-0.010256199210798,-0.010256199210798,2034,-14
0.764,-0.000329800215982721,-6.73726875149662e-05,-0.0135419101905082,-0.0113839540113364,-0.0107555197781847,-0.0107555197781847,2034,-14
0.765,-0.000328000359971202,-6.53717036380638e-05,-0.0131397124312508,-0.0113862246353548,-0.0111590899994417,-0.0111590899994417,2033,-15
0.766,-0.000326200503959683,-6.33767741753122e-05,-0.0127387316092378,-0.0116289906656199,-0.011382498750112,-0.011382498750112,2033,-15
0.767,-0.000323800864241988,-6.07890044899421e-05,-0.0122185899024784,-0.0118894843756509,-0.0116239979619859,-0.0116239979619859,2033,-15
0.768,-0.000320199855959669,-5.70095136044498e-05,-0.0114589122344944,-0.0119427250434872,-0.0118112458771033,-0.0118112458771033,2032,-16
0.769,-0.00031659884767735,-5.32414583948591e-05,-0.0107015331373667,-0.0119281862832544,-0.0118908675349671,-0.0118908675349671,2032,-16
0.77,-0.000313999280057595,-5.04847298837736e-05,-0.0101474307066385,-0.0119448650456798,-0.0119201355666979,-0.0119201355666979,2032,-16
0.771,-0.000312199424046076,-4.85348442145298e-05,-0.00975550368712048,-0.0118725306640899,-0.0119128037001511,-0.0119128037001511,2032,-16
0.772,-0.000310399568034557,-4.65908583506392e-05,-0.00936476252847847,-0.0115175706855295,-0.0117732184274964,-0.0117732184274964,2032,-16
0.773,-0.000308599712023038,-4.4652754440951e-05,-0.00897520364263115,-0.0108960026530254,-0.0114101211465868,-0.0114101211465868,2033,-15
0.774,-0.000306799856011519,-4.2720514688327e-05,-0.00858682345235373,-0.0100592322587273,-0.0108123623704904,-0.0108123623704904,2034,-14
0.775,-0.000305,-4.0794121349478e-05,-0.00819961839124507,-0.00908441428970969,-0.0100171450010853,-0.0100171450010853,2035,-13
0.776,-0.000305,-4.06706898174069e-05,-0.0081748086532988,-0.00841327125888663,-0.00920413075314483,-0.00920413075314483,2036,-12
0.777,-0.000305,-4.05476317544193e-05,-0.00815007398263829,-0.00775928269527882,-0.00848755781977169,-0.00848755781977169,2036,-12
0.778,-0.000305399568034557,-4.08239095748414e-05,-0.00820560582454312,-0.00728509876273027,-0.00786873276158762,-0.00786873276158762,2037,-11
0.779,-0.000307199424046076,-4.24975209945886e-05,-0.0085420017199123,-0.00724482829823602,-0.00748170120318732,-0.00748170120318732,2038,-10
0.78,-0.000308999280057595,-4.41660685371202e-05,-0.00887737977596116,-0.00738370669861735,-0.00737437190526384,-0.00737437190526384,2038,-10
0.781,-0.00030840115232265,-4.34352115898614e-05,-0.00873047752956215,-0.00724732839231938,-0.00733664475154879,-0.00733664475154879,2038,-10
0.782,-0.000304800144040331,-3.97082283984691e-05,-0.00798135390809229,-0.00673798563513057,-0.00711613979140532,-0.00711613979140532,2038,-10
0.783,-0.000301199135758012,-3.59925220094712e-05,-0.00723449692390372,-0.00643833783669742,-0.00677769231993652,-0.00677769231993652,2039,-9
0.784,-0.000301200503959683,-3.5884984897647e-05,-0.00721288196442704,-0.00697483130789079,-0.00673211043042215,-0.00673211043042215,2039,-9
0.785,-0.000303000359971202,-3.75735401136942e-05,-0.00755228156285254,-0.0078552058557325,-0.00716987206592824,-0.00716987206592824,2038,-10
0.786,-0.000304800215982721,-3.92569862368034e-05,-0.00789065423359749,-0.00862808289199402,-0.00785690559665582,-0.00785690559665582,2037,-11
0.787,-0.000300199784017278,-3.45447334839048e-05,-0.00694349143026486,-0.00799299094939826,-0.00814769490693808,-0.00814769490693808,2037,-11
0.788,-0.000294800215982721,-2.904881159317e-05,-0.00583881113022717,-0.00710837416621402,-0.00776499468313555,-0.00776499468313555,2037,-11
0.789,-0.000290399568034558,-2.45669276764162e-05,-0.00493795246295966,-0.00631401024958647,-0.00708948027593343,-0.00708948027593343,2038,-10
0.79,-0.000293999280057596,-2.80868612314121e-05,-0.00564545910751383,-0.00695448480273523,-0.0067976644106946,-0.0067976644106946,2039,-9
0.791,-0.000297598992080634,-3.15961444579511e-05,-0.00635082503604818,-0.00736671904307627,-0.007030316662112,-0.007030316662112,2038,-10
0.792,-0.0003,-3.38979189479146e-05,-0.00681348170853084,-0.00737369783120303,-0.00724819600507844,-0.00724819600507844,2038,-10
0.793,-0.0003,-3.37953533837757e-05,-0.00679286603013892,-0.00683370587848873,-0.00715557154980116,-0.00715557154980116,2038,-10
0.794,-0.0003,-3.36930981541728e-05,-0.00677231272898873,-0.00632814392573142,-0.00678720831410175,-0.00678720831410175,2039,-9
0.795,-0.000301000719942405,-3.45903583140497e-05,-0.006952662021124,-0.00611600536203973,-0.00642494314088625,-0.00642494314088625,2039,-9
0.796,-0.000302800575953924,-3.62828307058418e-05,-0.00729284897187421,-0.00618925468364208,-0.00625038344983154,-0.00625038344983154,2039,-9
0.797,-0.000304600431965443,-3.79701821524241e-05,-0.00763200661263725,-0.00640680607828207,-0.0062809263544024,-0.0062809263544024,2039,-9
0.798,-0.000305,-3.82542586100685e-05,-0.00768910598062376,-0.0065013144731514,-0.0063919096372962,-0.0063919096372962,2039,-9
0.799,-0.000305,-3.81385119879503e-05,-0.007665840909578,-0.00667290428978589,-0.00651703767843238,-0.00651703767843238,2039,-9
0.8,-0.000305,-3.80231155825404e-05,-0.00764264623209063,-0.00696747771087198,-0.00671136673093017,-0.00671136673093017,2039,-9
0.801,-0.000299600431965443,-3.25166690863635e-05,-0.00653585048635907,-0.00627875408260598,-0.00665479568337172,-0.00665479568337172,2039,-9
0.802,-0.000294200863930885,-2.7026883547815e-05,-0.00543240359311082,-0.00567934921595743,-0.00622162643074991,-0.00622162643074991,2039,-9
0.803,-0.000289200863930885,-2.1952672099864e-05,-0.00441248709207266,-0.00517178692798639,-0.00571133261102043,-0.00571133261102043,2040,-8
0.804,-0.000285601151907847,-1.82919833261804e-05,-0.00367668864856226,-0.00487435445183802,-0.00527013907184849,-0.00527013907184849,2040,-8
0.805,-0.000282001439884809,-1.4642370766638e-05,-0.00294311652409424,-0.00443752061754434,-0.00487642013777329,-0.00487642013777329,2041,-7
0.806,-0.000282398271516025,-1.49942983537316e-05,-0.00301385396910006,-0.00461103325633402,-0.00465068731672578,-0.00465068731672578,2041,-7
0.807,-0.000287799783939503,-2.03422705213391e-05,-0.00408879637478915,-0.00553008670673525,-0.00491983646083402,-0.00491983646083402,2041,-7
0.808,-0.000293201296362982,-2.5674061230043e-05,-0.00516048630723864,-0.00618114647051049,-0.00551969551710892,-0.00551969551710892,2040,-8
0.809,-0.000297401007919367,-2.9789736728914e-05,-0.00598773708251172,-0.00640695006467357,-0.00601607548536732,-0.00601607548536732,2040,-8
0.81,-0.000301000719942405,-3.32938675333729e-05,-0.00669206737420795,-0.00643926563481821,-0.00627699366766128,-0.00627699366766128,2039,-9
0.811,-0.000304600431965443,-3.67873958240513e-05,-0.0073942665606343,-0.00650164429043794,-0.00640100731828102,-0.00640100731828102,2039,-9
0.812,-0.000308200143988481,-4.02703536811724e-05,-0.00809434108991566,-0.00667925086892624,-0.0065224433832817,-0.0065224433832817,2039,-9
0.813,-0.000311799856011519,-4.37427730878939e-05,-0.00879229739066667,-0.00703492269418367,-0.00673695838217481,-0.00673695838217481,2039,-9
0.814,-0.000314600431965442,-4.64067588419234e-05,-0.0093277585272266,-0.00744628026302491,-0.00705980652091166,-0.00705980652091166,2038,-10
0.815,-0.000311000719942404,-4.26720788829386e-05,-0.00857708785547066,-0.00683350643635753,-0.00711114423166779,-0.00711114423166779,2038,-10
0.816,-0.000307401007919366,-3.89486990146012e-05,-0.00782868850193483,-0.00650639951221638,-0.00682832932309033,-0.00682832932309033,2039,-9
0.817,-0.000303800864241988,-3.52361540447084e-05,-0.00708246696298638,-0.00638619839383924,-0.00658343806022974,-0.00658343806022974,2039,-9
0.818,-0.000300199855959669,-3.15339788942999e-05,-0.00633832975775427,-0.00637200809328608,-0.00645245420339187,-0.00645245420339187,2039,-9
0.819,-0.000296598847677349,-2.78430054841345e-05,-0.00559644410231104,-0.00635645743210076,-0.00639590199781594,-0.00639590199781594,2039,-9
0.82,-0.000293999280057595,-2.51631255446399e-05,-0.00505778823447261,-0.00643588420875723,-0.0063960743200038,-0.0063960743200038,2039,-9
0.821,-0.000292199424046076,-2.32898559248337e-05,-0.00468126104089158,-0.00647888100137051,-0.00643537450273461,-0.00643537450273461,2039,-9
0.822,-0.000290399568034557,-2.14222542917744e-05,-0.00430587311264665,-0.00627429757374451,-0.00639769167249288,-0.00639769167249288,2039,-9
0.823,-0.000287199424046076,-1.81621339574611e-05,-0.00365058892544969,-0.00554383718334752,-0.00608447097124489,-0.00608447097124489,2039,-9
0.824,-0.000283599712023038,-1.45129142855698e-05,-0.00291709577139954,-0.00453279450034492,-0.00541385870880985,-0.00541385870880985,2040,-8
0.825,-0.00028,-1.08747361255451e-05,-0.00218582196123456,-0.0033780421897493,-0.00447896103973117,-0.00447896103973117,2041,-7
0.826,-0.000276400287976962,-7.2475660688791e-06,-0.0014567607798447,-0.0021480408795986,-0.00337901263905346,-0.00337901263905346,2043,-5
0.827,-0.000272800575953923,-3.63137080814854e-06,-0.000729905532437857,-0.00091676591324424,-0.00219528876557139,-0.00219528876557139,2044,-4
0.828,-0.000270399568034557,-1.22300776972509e-06,-0.000245824561714743,1.28646012881834e-05,-0.00107776433634487,-0.00107776433634487,2046,-2
0.829,-0.000272199424046076,-3.0164403749643e-06,-0.000606304515367825,1.71256707952682e-05,-0.000377277495071413,-0.000377277495071413,2047,-1
0.83,-0.000273999280057596,-4.80444655779743e-06,-0.000965693758117283,-6.30119084461852e-05,-0.000150140074400929,-0.000150140074400929,2047,-1
0.831,-0.000275,-5.78911564837436e-06,-0.00116361224532325,-0.000103486170800188,-0.000107261205953658,-0.000107261205953658,2047,-1
0.832,-0.000275,-5.77159941343226e-06,-0.00116009148209988,-8.98678313717978e-05,-0.000100476459243616,-0.000100476459243616,2047,-1
0.833,-0.000275,-5.75413617768812e-06,-0.00115658137171531,-0.000223431509295841,-0.000136484927891182,-0.000136484927891182,2047,-1
0.834,-0.000273799496040317,-4.5380380146832e-06,-0.000912145640951323,-0.000240277178481425,-0.000197619168915189,-0.000197619168915189,2047,-1
0.835,-0.000271999640028798,-2.72717410601162e-06,-0.000548161995308336,-0.00023138529483522,-0.000222114084135146,-0.000222114084135146,2047,-1
0.836,-0.000270199784017279,-9.21789361965197e-07,-0.000185279661755005,-0.00026748545415867,-0.000239627731802966,-0.000239627731802966,2047,-1
0.837,-0.000263599712023039,5.67108672717612e-06,0.0011398884321624,0.000646058185194005,3.53172023769273e-05,3.53172023769273e-05,2047,-1
0.838,-0.000256400287976962,1.28424599449615e-05,0.00258133444893725,0.00167253574023904,0.000755817048748461,0.000755817048748461,2048,0
0.839,-0.00025,1.91942075166786e-05,0.00385803571085241,0.00258699428340546,0.00163655292251371,0.00163655292251371,2049,1
0.84,-0.00025,1.91361312458264e-05,0.0038463623804111,0.0023545530921356,0.00217130982331936,0.00217130982331936,2050,2
0.841,-0.00025,1.90782306974275e-05,0.00383472437018293,0.0023430831993036,0.00228509720947336,0.00228509720947336,2050,2
0.842,-0.000250599567879006,1.84218445226336e-05,0.00370279074904935,0.00241920262616585,0.00234666496797424,0.00234666496797424,2050,2
0.843,-0.000252400072020166,1.6568324973147e-05,0.00333023331960255,0.00243100767366543,0.00239694713588539,0.00239694713588539,2050,2
0.844,-0.000254200576161325,1.4720413652252e-05,0.00295880314410265,0.00256584599809944,0.00246199822562708,0.00246199822562708,2050,2
0.845,-0.000248995680345572,1.98728953634355e-05,0.00399445196805053,0.00411264892910648,0.00302433748073982,0.00302433748073982,2051,3
0.846,-0.000238196544276458,3.05955640697721e-05,0.00614970837802419,0.0066176104422006,0.00452484530440246,0.00452484530440246,2053,5
0.847,-0.000227397408207344,4.12857889978748e-05,0.00829844358857284,0.00886701803661555,0.00658732539094452,0.00658732539094452,2055,7
0.848,-0.000223599712023038,4.49528206221502e-05,0.00903551694505219,0.00949964052864916,0.00825143044971878,0.00825143044971878,2057,9
0.849,-0.000221799856011519,4.66139391189101e-05,0.00936940176290094,0.00963000784604832,0.00909334951230209,0.00909334951230209,2058,10
0.85,-0.00022,4.8270031538524e-05,0.00970227633924333,0.00971415671020697,0.00946433205449796,0.00946433205449796,2059,11
0.851,-0.000214600431965443,5.3515379253699e-05,0.0107565912299935,0.0104920010627024,0.00987378515190613,0.00987378515190613,2059,11
0.852,-0.000209200863930886,5.87448560226859e-05,0.0118077160605599,0.0112453367554669,0.0105115311500975,0.0105115311500975,2060,12
0.853,-0.000204600431965443,6.3160582777825e-05,0.0126952771383428,0.0118606963639194,0.0111791500024024,0.0111791500024024,2061,13
0.854,-0.000202800575953924,6.47666097098173e-05,0.0130180885516733,0.0119953411862356,0.0116591940874505,0.0116591940874505,2061,13
0.855,-0.000201000719942405,6.63677772562364e-05,0.0133399232285035,0.0122587558010398,0.0119591007580833,0.0119591007580833,2062,14
0.856,-0.000200799423838675,6.63679586086558e-05,0.0133399596803398,0.012337419552681,0.0121764000649917,0.0121764000649917,2062,14
0.857,-0.000202599927979834,6.43693676095898e-05,0.0129382428895275,0.0121565114766995,0.012221634327619,0.012221634327619,2062,14
0.858,-0.000204400432120994,6.23768237844999e-05,0.0125377415806845,0.0120969322098706,0.0121607929915075,0.0121607929915075,2062,14
0.859,-0.000207401007919366,5.91920527186982e-05,0.0118976025964583,0.0118689348182753,0.0120467805059726,0.0120467805059726,2062,14
0.86,-0.000211000719942405,5.54186880581194e-05,0.011139156299682,0.0115466748323728,0.0118294884029928,0.0118294884029928,2062,14
0.861,-0.000214600431965443,5.16567405372094e-05,0.0103830048479791,0.011194829985583,0.0115354268683679,0.0115354268683679,2061,13
0.862,-0.000219800215982721,4.63085243004798e-05,0.00930801338439643,0.0104480932876357,0.0110777568480099,0.0110777568480099,2061,13
0.863,-0.000225199784017279,4.0777008488969e-05,0.00819617870628276,0.00956506611702594,0.0103911048315489,0.0103911048315489,2060,12
0.864,-0.000229600431965443,3.62596383486265e-05,0.00728818730807392,0.00875863018852932,0.00960311978105451,0.00960311978105451,2059,11
0.865,-0.000226000719942405,3.97441930513617e-05,0.0079885828033237,0.00937505626267207,0.00925935275832771,0.00925935275832771,2058,10
0.866,-0.000222401007919366,4.32182044720917e-05,0.00868685909889043,0.00975446466727629,0.00945512692925494,0.00945512692925494,2059,11
0.867,-0.000220599567879006,4.48861530616433e-05,0.00902211676539029,0.00960699228548653,0.00959974330561806,0.00959974330561806,2059,11
0.868,-0.000222400072020166,4.2952559961358e-05,0.00863346455223295,0.0086866063897736,0.00930939460818986,0.00930939460818986,2059,11
0.869,-0.000224200576161325,4.10248173696968e-05,0.00824598829130907,0.00782819363376548,0.00863503909766401,0.00863503909766401,2058,10
0.87,-0.000225,4.01024733935021e-05,0.00806059715209391,0.00728685501541832,0.00794432449954086,0.00794432449954086,2057,9
0.871,-0.000225,3.99811345935217e-05,0.00803620805329787,0.00704779732539968,0.00744624864753326,0.00744624864753326,2056,8
