sample_index,time_s,code_signed,voltage_V
0,0.0,70,0.00035
1,0.001,69,0.000345
2,0.002,69,0.000345
3,0.003,68,0.00034
4,0.004,68,0.00034
5,0.005,70,0.00035
6,0.006,72,0.00036
7,0.007,74,0.00037
8,0.008,76,0.00038
9,0.009,76,0.00038
10,0.01,76,0.00038
11,0.011,76,0.00038
12,0.012,77,0.000385
13,0.013,78,0.00039
14,0.014,79,0.000395
15,0.015,80,0.0004
16,0.016,81,0.000405
17,0.017,80,0.0004
18,0.018,80,0.0004
19,0.019,80,0.0004
20,0.02,80,0.0004
21,0.021,81,0.000405
22,0.022,82,0.00041
23,0.023,83,0.000415
24,0.024,84,0.00042
25,0.025,83,0.000415
26,0.026,83,0.000415
27,0.027,82,0.00041
28,0.028,82,0.00041
29,0.029,83,0.000415
30,0.03,85,0.000425
31,0.031,86,0.00043
32,0.032,88,0.00044
33,0.033,88,0.00044
34,0.034,89,0.000445
35,0.035,89,0.000445
36,0.036,90,0.00045
37,0.037,90,0.00045
38,0.038,91,0.000455
39,0.039,92,0.00046
40,0.04,93,0.000465
41,0.041,93,0.000465
42,0.042,94,0.00047
43,0.043,95,0.000475
44,0.044,96,0.00048
45,0.045,97,0.000485
46,0.046,98,0.00049
47,0.047,99,0.000495
48,0.048,101,0.000505
49,0.049,101,0.000505
50,0.05,102,0.00051
51,0.051,102,0.00051
52,0.052,103,0.000515
53,0.053,104,0.00052
54,0.054,105,0.000525
55,0.055,106,0.00053
56,0.056,107,0.000535
57,0.057,108,0.00054
58,0.058,110,0.00055
59,0.059,112,0.00056
60,0.06,114,0.00057
61,0.061,113,0.000565
62,0.062,112,0.00056
63,0.063,111,0.000555
64,0.064,110,0.00055
65,0.065,110,0.00055
66,0.066,111,0.000555
67,0.067,112,0.00056
68,0.068,113,0.000565
69,0.069,112,0.00056
70,0.07,112,0.00056
71,0.071,112,0.00056
72,0.072,112,0.00056
73,0.073,112,0.00056
74,0.074,112,0.00056
75,0.075,112,0.00056
76,0.076,112,0.00056
77,0.077,110,0.00055
78,0.078,109,0.000545
79,0.079,107,0.000535
80,0.08,106,0.00053
81,0.081,105,0.000525
82,0.082,105,0.000525
83,0.083,105,0.000525
84,0.084,105,0.000525
85,0.085,105,0.000525
86,0.086,105,0.000525
87,0.087,105,0.000525
88,0.088,105,0.000525
89,0.089,104,0.00052
90,0.09,104,0.00052
91,0.091,103,0.000515
92,0.092,103,0.000515
93,0.093,101,0.000505
94,0.094,99,0.000495
95,0.095,97,0.000485
96,0.096,95,0.000475
97,0.097,95,0.000475
98,0.098,95,0.000475
99,0.099,95,0.000475
100,0.1,96,0.00048
101,0.101,95,0.000475
102,0.102,94,0.00047
103,0.103,93,0.000465
104,0.104,93,0.000465
105,0.105,92,0.00046
106,0.106,92,0.00046
107,0.107,92,0.00046
108,0.108,92,0.00046
109,0.109,91,0.000455
110,0.11,91,0.000455
111,0.111,91,0.000455
112,0.112,91,0.000455
113,0.113,90,0.00045
114,0.114,89,0.000445
115,0.115,88,0.00044
116,0.116,87,0.000435
117,0.117,86,0.00043
118,0.118,85,0.000425
119,0.119,84,0.00042
120,0.12,83,0.000415
121,0.121,84,0.00042
122,0.122,85,0.000425
123,0.123,86,0.00043
124,0.124,87,0.000435
125,0.125,86,0.00043
126,0.126,85,0.000425
127,0.127,84,0.00042
128,0.128,84,0.00042
129,0.129,83,0.000415
130,0.13,83,0.000415
131,0.131,82,0.00041
132,0.132,82,0.00041
133,0.133,80,0.0004
134,0.134,79,0.000395
135,0.135,77,0.000385
136,0.136,76,0.00038
137,0.137,76,0.00038
138,0.138,77,0.000385
139,0.139,78,0.00039
140,0.14,79,0.000395
141,0.141,78,0.00039
142,0.142,78,0.00039
143,0.143,78,0.00039
144,0.144,78,0.00039
145,0.145,77,0.000385
146,0.146,76,0.00038
147,0.147,75,0.000375
148,0.148,75,0.000375
149,0.149,75,0.000375
150,0.15,75,0.000375
151,0.151,75,0.000375
152,0.152,75,0.000375
153,0.153,75,0.000375
154,0.154,75,0.000375
155,0.155,75,0.000375
156,0.156,75,0.000375
157,0.157,74,0.00037
158,0.158,74,0.00037
159,0.159,74,0.00037
160,0.16,74,0.00037
161,0.161,74,0.00037
162,0.162,74,0.00037
163,0.163,74,0.00037
164,0.164,74,0.00037
165,0.165,74,0.00037
166,0.166,74,0.00037
167,0.167,74,0.00037
168,0.168,75,0.000375
169,0.169,75,0.000375
170,0.17,75,0.000375
171,0.171,75,0.000375
172,0.172,76,0.00038
173,0.173,75,0.000375
174,0.174,74,0.00037
175,0.175,73,0.000365
176,0.176,72,0.00036
177,0.177,71,0.000355
178,0.178,71,0.000355
179,0.179,71,0.000355
180,0.18,71,0.000355
181,0.181,71,0.000355
182,0.182,72,0.00036
183,0.183,72,0.00036
184,0.184,73,0.000365
185,0.185,73,0.000365
186,0.186,73,0.000365
187,0.187,73,0.000365
188,0.188,74,0.00037
189,0.189,75,0.000375
190,0.19,76,0.00038
191,0.191,77,0.000385
192,0.192,78,0.00039
193,0.193,79,0.000395
194,0.194,80,0.0004
195,0.195,81,0.000405
196,0.196,82,0.00041
197,0.197,82,0.00041
198,0.198,83,0.000415
199,0.199,84,0.00042
200,0.2,85,0.000425
201,0.201,87,0.000435
202,0.202,90,0.00045
203,0.203,92,0.00046
204,0.204,95,0.000475
205,0.205,95,0.000475
206,0.206,96,0.00048
207,0.207,97,0.000485
208,0.208,98,0.00049
209,0.209,98,0.00049
210,0.21,98,0.00049
211,0.211,98,0.00049
212,0.212,99,0.000495
213,0.213,100,0.0005
214,0.214,101,0.000505
215,0.215,102,0.00051
216,0.216,104,0.00052
217,0.217,105,0.000525
218,0.218,106,0.00053
219,0.219,107,0.000535
220,0.22,109,0.000545
221,0.221,111,0.000555
222,0.222,113,0.000565
223,0.223,115,0.000575
224,0.224,117,0.000585
225,0.225,118,0.00059
226,0.226,119,0.000595
227,0.227,120,0.0006
228,0.228,122,0.00061
229,0.229,123,0.000615
230,0.23,124,0.00062
231,0.231,125,0.000625
232,0.232,126,0.00063
233,0.233,126,0.00063
234,0.234,126,0.00063
235,0.235,126,0.00063
236,0.236,127,0.000635
237,0.237,127,0.000635
238,0.238,128,0.00064
239,0.239,128,0.00064
240,0.24,129,0.000645
241,0.241,127,0.000635
242,0.242,125,0.000625
243,0.243,123,0.000615
244,0.244,122,0.00061
245,0.245,120,0.0006
246,0.246,119,0.000595
247,0.247,117,0.000585
248,0.248,116,0.00058
249,0.249,115,0.000575
250,0.25,115,0.000575
251,0.251,115,0.000575
252,0.252,115,0.000575
253,0.253,115,0.000575
254,0.254,115,0.000575
255,0.255,115,0.000575
256,0.256,116,0.00058
257,0.257,114,0.00057
258,0.258,112,0.00056
259,0.259,110,0.00055
260,0.26,109,0.000545
261,0.261,107,0.000535
262,0.262,105,0.000525
263,0.263,103,0.000515
264,0.264,101,0.000505
265,0.265,98,0.00049
266,0.266,96,0.00048
267,0.267,93,0.000465
268,0.268,91,0.000455
269,0.269,89,0.000445
270,0.27,87,0.000435
271,0.271,85,0.000425
272,0.272,83,0.000415
273,0.273,81,0.000405
274,0.274,80,0.0004
275,0.275,79,0.000395
276,0.276,78,0.00039
277,0.277,77,0.000385
278,0.278,76,0.00038
279,0.279,75,0.000375
280,0.28,74,0.00037
281,0.281,71,0.000355
282,0.282,69,0.000345
283,0.283,66,0.00033
284,0.284,64,0.00032
285,0.285,63,0.000315
286,0.286,62,0.00031
287,0.287,61,0.000305
288,0.288,60,0.0003
289,0.289,58,0.00029
290,0.29,57,0.000285
291,0.291,56,0.00028
292,0.292,55,0.000275
293,0.293,54,0.00027
294,0.294,54,0.00027
295,0.295,53,0.000265
296,0.296,53,0.000265
297,0.297,51,0.000255
298,0.298,50,0.00025
299,0.299,48,0.00024
300,0.3,47,0.000235
301,0.301,47,0.000235
302,0.302,48,0.00024
303,0.303,48,0.00024
304,0.304,49,0.000245
305,0.305,49,0.000245
306,0.306,50,0.00025
307,0.307,50,0.00025
308,0.308,51,0.000255
309,0.309,49,0.000245
310,0.31,47,0.000235
311,0.311,45,0.000225
312,0.312,44,0.00022
313,0.313,45,0.000225
314,0.314,46,0.00023
315,0.315,47,0.000235
316,0.316,49,0.000245
317,0.317,48,0.00024
318,0.318,47,0.000235
319,0.319,46,0.00023
320,0.32,46,0.00023
321,0.321,46,0.00023
322,0.322,46,0.00023
323,0.323,46,0.00023
324,0.324,46,0.00023
325,0.325,46,0.00023
326,0.326,46,0.00023
327,0.327,46,0.00023
328,0.328,47,0.000235
329,0.329,46,0.00023
330,0.33,46,0.00023
331,0.331,45,0.000225
332,0.332,45,0.000225
333,0.333,44,0.00022
334,0.334,44,0.00022
335,0.335,43,0.000215
336,0.336,43,0.000215
337,0.337,43,0.000215
338,0.338,44,0.00022
339,0.339,44,0.00022
340,0.34,45,0.000225
341,0.341,43,0.000215
342,0.342,42,0.00021
343,0.343,41,0.000205
344,0.344,40,0.0002
345,0.345,39,0.000195
346,0.346,39,0.000195
347,0.347,39,0.000195
348,0.348,39,0.000195
349,0.349,39,0.000195
350,0.35,39,0.000195
351,0.351,39,0.000195
352,0.352,40,0.0002
353,0.353,39,0.000195
354,0.354,39,0.000195
355,0.355,39,0.000195
356,0.356,39,0.000195
357,0.357,38,0.00019
358,0.358,38,0.00019
359,0.359,37,0.000185
360,0.36,37,0.000185
361,0.361,35,0.000175
362,0.362,34,0.00017
363,0.363,32,0.00016
364,0.364,31,0.000155
365,0.365,33,0.000165
366,0.366,36,0.00018
367,0.367,38,0.00019
368,0.368,41,0.000205
369,0.369,43,0.000215
370,0.37,46,0.00023
371,0.371,48,0.00024
372,0.372,51,0.000255
373,0.373,57,0.000285
374,0.374,63,0.000315
375,0.375,69,0.000345
376,0.376,76,0.00038
377,0.377,84,0.00042
378,0.378,92,0.00046
379,0.379,100,0.0005
380,0.38,108,0.00054
381,0.381,117,0.000585
382,0.382,126,0.00063
383,0.383,135,0.000675
384,0.384,144,0.00072
385,0.385,153,0.000765
386,0.386,161,0.000805
387,0.387,169,0.000845
388,0.388,177,0.000885
389,0.389,186,0.00093
390,0.39,194,0.00097
391,0.391,202,0.00101
392,0.392,210,0.00105
393,0.393,219,0.001095
394,0.394,228,0.00114
395,0.395,237,0.001185
396,0.396,246,0.00123
397,0.397,255,0.001275
398,0.398,263,0.001315
399,0.399,272,0.00136
400,0.4,280,0.0014
401,0.401,288,0.00144
402,0.402,296,0.00148
403,0.403,304,0.00152
404,0.404,312,0.00156
405,0.405,318,0.00159
406,0.406,324,0.00162
407,0.407,329,0.001645
408,0.408,335,0.001675
409,0.409,339,0.001695
410,0.41,344,0.00172
411,0.411,349,0.001745
412,0.412,354,0.00177
413,0.413,350,0.00175
414,0.414,347,0.001735
415,0.415,344,0.00172
416,0.416,341,0.001705
417,0.417,325,0.001625
418,0.418,309,0.001545
419,0.419,294,0.00147
420,0.42,278,0.00139
421,0.421,264,0.00132
422,0.422,249,0.001245
423,0.423,235,0.001175
424,0.424,221,0.001105
425,0.425,218,0.00109
426,0.426,216,0.00108
427,0.427,213,0.001065
428,0.428,211,0.001055
429,0.429,199,0.000995
430,0.43,187,0.000935
431,0.431,175,0.000875
432,0.432,163,0.000815
433,0.433,143,0.000715
434,0.434,123,0.000615
435,0.435,103,0.000515
436,0.436,83,0.000415
437,0.437,66,0.00033
438,0.438,49,0.000245
439,0.439,32,0.00016
440,0.44,15,7.5e-05
441,0.441,-4,-2e-05
442,0.442,-22,-0.00011
443,0.443,-41,-0.000205
444,0.444,-60,-0.0003
445,0.445,-72,-0.00036
446,0.446,-84,-0.00042
447,0.447,-95,-0.000475
448,0.448,-107,-0.000535
449,0.449,-107,-0.000535
450,0.45,-107,-0.000535
451,0.451,-107,-0.000535
452,0.452,-107,-0.000535
453,0.453,-105,-0.000525
454,0.454,-103,-0.000515
455,0.455,-101,-0.000505
456,0.456,-98,-0.00049
457,0.457,-96,-0.00048
458,0.458,-93,-0.000465
459,0.459,-90,-0.00045
460,0.46,-87,-0.000435
461,0.461,-86,-0.00043
462,0.462,-84,-0.00042
463,0.463,-82,-0.00041
464,0.464,-80,-0.0004
465,0.465,-79,-0.000395
466,0.466,-77,-0.000385
467,0.467,-75,-0.000375
468,0.468,-73,-0.000365
469,0.469,-71,-0.000355
470,0.47,-69,-0.000345
471,0.471,-67,-0.000335
472,0.472,-64,-0.00032
473,0.473,-63,-0.000315
474,0.474,-61,-0.000305
475,0.475,-59,-0.000295
476,0.476,-57,-0.000285
477,0.477,-56,-0.00028
478,0.478,-55,-0.000275
479,0.479,-54,-0.00027
480,0.48,-53,-0.000265
481,0.481,-53,-0.000265
482,0.482,-52,-0.00026
483,0.483,-51,-0.000255
484,0.484,-50,-0.00025
485,0.485,-49,-0.000245
486,0.486,-47,-0.000235
487,0.487,-46,-0.00023
488,0.488,-44,-0.00022
489,0.489,-44,-0.00022
490,0.49,-43,-0.000215
491,0.491,-42,-0.00021
492,0.492,-41,-0.000205
493,0.493,-39,-0.000195
494,0.494,-37,-0.000185
495,0.495,-35,-0.000175
496,0.496,-32,-0.00016
497,0.497,-32,-0.00016
498,0.498,-32,-0.00016
499,0.499,-32,-0.00016
500,0.5,-31,-0.000155
501,0.501,-29,-0.000145
502,0.502,-27,-0.000135
503,0.503,-25,-0.000125
504,0.504,-22,-0.00011
505,0.505,-23,-0.000115
506,0.506,-23,-0.000115
507,0.507,-24,-0.00012
508,0.508,-24,-0.00012
509,0.509,-24,-0.00012
510,0.51,-24,-0.00012
511,0.511,-24,-0.00012
512,0.512,-23,-0.000115
513,0.513,-24,-0.00012
514,0.514,-24,-0.00012
515,0.515,-24,-0.00012
516,0.516,-24,-0.00012
517,0.517,-23,-0.000115
518,0.518,-22,-0.00011
519,0.519,-21,-0.000105
520,0.52,-20,-0.0001
521,0.521,-20,-0.0001
522,0.522,-20,-0.0001
523,0.523,-20,-0.0001
524,0.524,-19,-9.5e-05
525,0.525,-20,-0.0001
526,0.526,-21,-0.000105
527,0.527,-22,-0.00011
528,0.528,-22,-0.00011
529,0.529,-22,-0.00011
530,0.53,-22,-0.00011
531,0.531,-22,-0.00011
532,0.532,-21,-0.000105
533,0.533,-22,-0.00011
534,0.534,-23,-0.000115
535,0.535,-24,-0.00012
536,0.536,-25,-0.000125
537,0.537,-26,-0.00013
538,0.538,-26,-0.00013
539,0.539,-26,-0.00013
540,0.54,-26,-0.00013
541,0.541,-27,-0.000135
542,0.542,-27,-0.000135
543,0.543,-28,-0.00014
544,0.544,-28,-0.00014
545,0.545,-28,-0.00014
546,0.546,-27,-0.000135
547,0.547,-27,-0.000135
548,0.548,-26,-0.00013
549,0.549,-27,-0.000135
550,0.55,-27,-0.000135
551,0.551,-27,-0.000135
552,0.552,-27,-0.000135
553,0.553,-27,-0.000135
554,0.554,-26,-0.00013
555,0.555,-26,-0.00013
556,0.556,-25,-0.000125
557,0.557,-26,-0.00013
558,0.558,-27,-0.000135
559,0.559,-28,-0.00014
560,0.56,-29,-0.000145
561,0.561,-28,-0.00014
562,0.562,-27,-0.000135
563,0.563,-26,-0.00013
564,0.564,-25,-0.000125
565,0.565,-24,-0.00012
566,0.566,-23,-0.000115
567,0.567,-22,-0.00011
568,0.568,-21,-0.000105
569,0.569,-23,-0.000115
570,0.57,-25,-0.000125
571,0.571,-27,-0.000135
572,0.572,-28,-0.00014
573,0.573,-28,-0.00014
574,0.574,-27,-0.000135
575,0.575,-27,-0.000135
576,0.576,-26,-0.00013
577,0.577,-27,-0.000135
578,0.578,-27,-0.000135
579,0.579,-27,-0.000135
580,0.58,-27,-0.000135
581,0.581,-26,-0.00013
582,0.582,-25,-0.000125
583,0.583,-24,-0.00012
584,0.584,-22,-0.00011
585,0.585,-22,-0.00011
586,0.586,-22,-0.00011
587,0.587,-22,-0.00011
588,0.588,-21,-0.000105
589,0.589,-22,-0.00011
590,0.59,-22,-0.00011
591,0.591,-23,-0.000115
592,0.592,-23,-0.000115
593,0.593,-22,-0.00011
594,0.594,-20,-0.0001
595,0.595,-19,-9.5e-05
596,0.596,-17,-8.5e-05
597,0.597,-17,-8.5e-05
598,0.598,-16,-8e-05
599,0.599,-16,-8e-05
600,0.6,-15,-7.5e-05
601,0.601,-15,-7.5e-05
602,0.602,-15,-7.5e-05
603,0.603,-15,-7.5e-05
604,0.604,-14,-7e-05
605,0.605,-13,-6.5e-05
606,0.606,-12,-6e-05
607,0.607,-11,-5.5e-05
608,0.608,-10,-5e-05
609,0.609,-9,-4.5e-05
610,0.61,-8,-4e-05
611,0.611,-7,-3.5e-05
612,0.612,-6,-3e-05
613,0.613,-6,-3e-05
614,0.614,-6,-3e-05
615,0.615,-6,-3e-05
616,0.616,-5,-2.5e-05
617,0.617,-4,-2e-05
618,0.618,-3,-1.5e-05
619,0.619,-2,-1e-05
620,0.62,0,0.0
621,0.621,1,5e-06
622,0.622,3,1.5e-05
623,0.623,5,2.5e-05
624,0.624,7,3.5e-05
625,0.625,7,3.5e-05
626,0.626,8,4e-05
627,0.627,9,4.5e-05
628,0.628,10,5e-05
629,0.629,12,6e-05
630,0.63,14,7e-05
631,0.631,16,8e-05
632,0.632,19,9.5e-05
633,0.633,19,9.5e-05
634,0.634,19,9.5e-05
635,0.635,19,9.5e-05
636,0.636,20,0.0001
637,0.637,21,0.000105
638,0.638,22,0.00011
639,0.639,23,0.000115
640,0.64,25,0.000125
641,0.641,25,0.000125
642,0.642,25,0.000125
643,0.643,25,0.000125
644,0.644,25,0.000125
645,0.645,25,0.000125
646,0.646,26,0.00013
647,0.647,26,0.00013
648,0.648,27,0.000135
649,0.649,26,0.00013
650,0.65,26,0.00013
651,0.651,25,0.000125
652,0.652,25,0.000125
653,0.653,26,0.00013
654,0.654,27,0.000135
655,0.655,28,0.00014
656,0.656,29,0.000145
657,0.657,28,0.00014
658,0.658,28,0.00014
659,0.659,27,0.000135
660,0.66,27,0.000135
661,0.661,26,0.00013
662,0.662,25,0.000125
663,0.663,24,0.00012
664,0.664,24,0.00012
665,0.665,23,0.000115
666,0.666,22,0.00011
667,0.667,21,0.000105
668,0.668,20,0.0001
669,0.669,18,9e-05
670,0.67,17,8.5e-05
671,0.671,16,8e-05
672,0.672,15,7.5e-05
673,0.673,14,7e-05
674,0.674,14,7e-05
675,0.675,14,7e-05
676,0.676,14,7e-05
677,0.677,13,6.5e-05
678,0.678,12,6e-05
679,0.679,11,5.5e-05
680,0.68,11,5.5e-05
681,0.681,10,5e-05
682,0.682,9,4.5e-05
683,0.683,8,4e-05
684,0.684,8,4e-05
685,0.685,7,3.5e-05
686,0.686,6,3e-05
687,0.687,5,2.5e-05
688,0.688,4,2e-05
689,0.689,3,1.5e-05
690,0.69,3,1.5e-05
691,0.691,2,1e-05
692,0.692,2,1e-05
693,0.693,1,5e-06
694,0.694,1,5e-06
695,0.695,0,0.0
696,0.696,0,0.0
697,0.697,-1,-5e-06
698,0.698,-1,-5e-06
699,0.699,-1,-5e-06
700,0.7,-1,-5e-06
701,0.701,-3,-1.5e-05
702,0.702,-5,-2.5e-05
703,0.703,-7,-3.5e-05
704,0.704,-8,-4e-05
705,0.705,-7,-3.5e-05
706,0.706,-6,-3e-05
707,0.707,-5,-2.5e-05
708,0.708,-4,-2e-05
709,0.709,-5,-2.5e-05
710,0.71,-6,-3e-05
711,0.711,-7,-3.5e-05
712,0.712,-7,-3.5e-05
713,0.713,-8,-4e-05
714,0.714,-9,-4.5e-05
715,0.715,-10,-5e-05
716,0.716,-11,-5.5e-05
717,0.717,-12,-6e-05
718,0.718,-12,-6e-05
719,0.719,-13,-6.5e-05
720,0.72,-13,-6.5e-05
721,0.721,-13,-6.5e-05
722,0.722,-12,-6e-05
723,0.723,-11,-5.5e-05
724,0.724,-10,-5e-05
725,0.725,-11,-5.5e-05
726,0.726,-11,-5.5e-05
727,0.727,-12,-6e-05
728,0.728,-12,-6e-05
729,0.729,-13,-6.5e-05
730,0.73,-14,-7e-05
731,0.731,-15,-7.5e-05
732,0.732,-15,-7.5e-05
733,0.733,-15,-7.5e-05
734,0.734,-15,-7.5e-05
735,0.735,-15,-7.5e-05
736,0.736,-15,-7.5e-05
737,0.737,-15,-7.5e-05
738,0.738,-15,-7.5e-05
739,0.739,-15,-7.5e-05
740,0.74,-14,-7e-05
741,0.741,-15,-7.5e-05
742,0.742,-15,-7.5e-05
743,0.743,-16,-8e-05
744,0.744,-16,-8e-05
745,0.745,-15,-7.5e-05
746,0.746,-14,-7e-05
747,0.747,-13,-6.5e-05
748,0.748,-12,-6e-05
749,0.749,-12,-6e-05
750,0.75,-12,-6e-05
751,0.751,-12,-6e-05
752,0.752,-11,-5.5e-05
753,0.753,-12,-6e-05
754,0.754,-12,-6e-05
755,0.755,-13,-6.5e-05
756,0.756,-13,-6.5e-05
757,0.757,-13,-6.5e-05
758,0.758,-13,-6.5e-05
759,0.759,-13,-6.5e-05
760,0.76,-13,-6.5e-05
761,0.761,-14,-7e-05
762,0.762,-15,-7.5e-05
763,0.763,-16,-8e-05
764,0.764,-17,-8.5e-05
765,0.765,-16,-8e-05
766,0.766,-15,-7.5e-05
767,0.767,-14,-7e-05
768,0.768,-12,-6e-05
769,0.769,-12,-6e-05
770,0.77,-12,-6e-05
771,0.771,-12,-6e-05
772,0.772,-11,-5.5e-05
773,0.773,-11,-5.5e-05
774,0.774,-11,-5.5e-05
775,0.775,-11,-5.5e-05
776,0.776,-10,-5e-05
777,0.777,-9,-4.5e-05
778,0.778,-7,-3.5e-05
779,0.779,-6,-3e-05
780,0.78,-4,-2e-05
781,0.781,-3,-1.5e-05
782,0.782,-1,-5e-06
783,0.783,1,5e-06
784,0.784,3,1.5e-05
785,0.785,4,2e-05
786,0.786,6,3e-05
787,0.787,7,3.5e-05
788,0.788,9,4.5e-05
789,0.789,10,5e-05
790,0.79,12,6e-05
791,0.791,14,7e-05
792,0.792,16,8e-05
793,0.793,16,8e-05
794,0.794,17,8.5e-05
795,0.795,18,9e-05
796,0.796,19,9.5e-05
797,0.797,20,0.0001
798,0.798,21,0.000105
799,0.799,22,0.00011
800,0.8,23,0.000115
801,0.801,24,0.00012
802,0.802,25,0.000125
803,0.803,26,0.00013
804,0.804,28,0.00014
805,0.805,30,0.00015
806,0.806,32,0.00016
807,0.807,34,0.00017
808,0.808,36,0.00018
809,0.809,37,0.000185
810,0.81,39,0.000195
811,0.811,40,0.0002
812,0.812,42,0.00021
813,0.813,42,0.00021
814,0.814,43,0.000215
815,0.815,44,0.00022
816,0.816,45,0.000225
817,0.817,46,0.00023
818,0.818,47,0.000235
819,0.819,48,0.00024
820,0.82,50,0.00025
821,0.821,50,0.00025
822,0.822,50,0.00025
823,0.823,50,0.00025
824,0.824,51,0.000255
825,0.825,49,0.000245
826,0.826,48,0.00024
827,0.827,47,0.000235
828,0.828,46,0.00023
829,0.829,44,0.00022
830,0.83,43,0.000215
831,0.831,41,0.000205
832,0.832,40,0.0002
833,0.833,39,0.000195
834,0.834,38,0.00019
835,0.835,37,0.000185
836,0.836,37,0.000185
837,0.837,36,0.00018
838,0.838,35,0.000175
839,0.839,34,0.00017
840,0.84,34,0.00017
841,0.841,32,0.00016
842,0.842,31,0.000155
843,0.843,30,0.00015
844,0.844,29,0.000145
845,0.845,27,0.000135
846,0.846,25,0.000125
847,0.847,23,0.000115
848,0.848,21,0.000105
849,0.849,17,8.5e-05
850,0.85,14,7e-05
851,0.851,10,5e-05
852,0.852,7,3.5e-05
853,0.853,6,3e-05
854,0.854,5,2.5e-05
855,0.855,4,2e-05
856,0.856,3,1.5e-05
857,0.857,1,5e-06
858,0.858,0,0.0
859,0.859,-2,-1e-05
860,0.86,-3,-1.5e-05
861,0.861,-6,-3e-05
862,0.862,-8,-4e-05
863,0.863,-10,-5e-05
864,0.864,-12,-6e-05
865,0.865,-14,-7e-05
866,0.866,-16,-8e-05
867,0.867,-18,-9e-05
868,0.868,-19,-9.5e-05
869,0.869,-21,-0.000105
870,0.87,-23,-0.000115
871,0.871,-25,-0.000125
872,0.872,-26,-0.00013
873,0.873,-28,-0.00014
874,0.874,-29,-0.000145
875,0.875,-31,-0.000155
876,0.876,-32,-0.00016
877,0.877,-33,-0.000165
878,0.878,-33,-0.000165
879,0.879,-33,-0.000165
880,0.88,-33,-0.000165
881,0.881,-33,-0.000165
882,0.882,-33,-0.000165
883,0.883,-33,-0.000165
884,0.884,-33,-0.000165
885,0.885,-34,-0.00017
886,0.886,-34,-0.00017
887,0.887,-35,-0.000175
888,0.888,-35,-0.000175
889,0.889,-35,-0.000175
890,0.89,-35,-0.000175
891,0.891,-35,-0.000175
892,0.892,-34,-0.00017
893,0.893,-34,-0.00017
894,0.894,-34,-0.00017
895,0.895,-34,-0.00017
896,0.896,-33,-0.000165
897,0.897,-34,-0.00017
898,0.898,-35,-0.000175
899,0.899,-36,-0.00018
900,0.9,-36,-0.00018
901,0.901,-36,-0.00018
902,0.902,-35,-0.000175
903,0.903,-34,-0.00017
904,0.904,-33,-0.000165
905,0.905,-34,-0.00017
906,0.906,-35,-0.000175
907,0.907,-36,-0.00018
908,0.908,-37,-0.000185
909,0.909,-37,-0.000185
910,0.91,-37,-0.000185
911,0.911,-37,-0.000185
912,0.912,-37,-0.000185
913,0.913,-38,-0.00019
914,0.914,-38,-0.00019
915,0.915,-38,-0.00019
916,0.916,-38,-0.00019
917,0.917,-39,-0.000195
918,0.918,-39,-0.000195
919,0.919,-40,-0.0002
920,0.92,-40,-0.0002
921,0.921,-41,-0.000205
922,0.922,-41,-0.000205
923,0.923,-42,-0.00021
924,0.924,-42,-0.00021
925,0.925,-42,-0.00021
926,0.926,-42,-0.00021
927,0.927,-42,-0.00021
928,0.928,-41,-0.000205
929,0.929,-41,-0.000205
930,0.93,-41,-0.000205
931,0.931,-41,-0.000205
932,0.932,-41,-0.000205
933,0.933,-42,-0.00021
934,0.934,-42,-0.00021
935,0.935,-42,-0.00021
936,0.936,-42,-0.00021
937,0.937,-42,-0.00021
938,0.938,-42,-0.00021
939,0.939,-42,-0.00021
940,0.94,-41,-0.000205
941,0.941,-42,-0.00021
942,0.942,-43,-0.000215
943,0.943,-44,-0.00022
944,0.944,-45,-0.000225
945,0.945,-45,-0.000225
946,0.946,-45,-0.000225
947,0.947,-45,-0.000225
948,0.948,-44,-0.00022
949,0.949,-42,-0.00021
950,0.95,-39,-0.000195
951,0.951,-37,-0.000185
952,0.952,-34,-0.00017
953,0.953,-31,-0.000155
954,0.954,-27,-0.000135
955,0.955,-23,-0.000115
956,0.956,-19,-9.5e-05
957,0.957,-9,-4.5e-05
958,0.958,0,0.0
959,0.959,10,5e-05
960,0.96,19,9.5e-05
961,0.961,30,0.00015
962,0.962,41,0.000205
963,0.963,52,0.00026
964,0.964,63,0.000315
965,0.965,73,0.000365
966,0.966,83,0.000415
967,0.967,92,0.00046
968,0.968,102,0.00051
969,0.969,111,0.000555
970,0.97,120,0.0006
971,0.971,129,0.000645
972,0.972,138,0.00069
973,0.973,148,0.00074
974,0.974,159,0.000795
975,0.975,169,0.000845
976,0.976,179,0.000895
977,0.977,188,0.00094
978,0.978,197,0.000985
979,0.979,206,0.00103
980,0.98,215,0.001075
981,0.981,225,0.001125
982,0.982,235,0.001175
983,0.983,244,0.00122
984,0.984,254,0.00127
985,0.985,262,0.00131
986,0.986,269,0.001345
987,0.987,276,0.00138
988,0.988,283,0.001415
989,0.989,291,0.001455
990,0.99,298,0.00149
991,0.991,306,0.00153
992,0.992,313,0.001565
993,0.993,313,0.001565
994,0.994,313,0.001565
995,0.995,312,0.00156
996,0.996,312,0.00156
997,0.997,298,0.00149
998,0.998,283,0.001415
999,0.999,269,0.001345
1000,1.0,254,0.00127
1001,1.001,236,0.00118
1002,1.002,218,0.00109
1003,1.003,200,0.001
1004,1.004,182,0.00091
1005,1.005,176,0.00088
1006,1.006,170,0.00085
1007,1.007,165,0.000825
1008,1.008,160,0.0008
1009,1.009,150,0.00075
1010,1.01,141,0.000705
1011,1.011,131,0.000655
1012,1.012,121,0.000605
1013,1.013,101,0.000505
1014,1.014,80,0.0004
1015,1.015,59,0.000295
1016,1.016,38,0.00019
1017,1.017,18,9e-05
1018,1.018,-1,-5e-06
1019,1.019,-20,-0.0001
1020,1.02,-39,-0.000195
1021,1.021,-61,-0.000305
1022,1.022,-82,-0.00041
1023,1.023,-103,-0.000515
1024,1.024,-124,-0.00062
1025,1.025,-138,-0.00069
1026,1.026,-151,-0.000755
1027,1.027,-164,-0.00082
1028,1.028,-178,-0.00089
1029,1.029,-180,-0.0009
1030,1.03,-182,-0.00091
1031,1.031,-184,-0.00092
1032,1.032,-185,-0.000925
1033,1.033,-183,-0.000915
1034,1.034,-181,-0.000905
1035,1.035,-179,-0.000895
1036,1.036,-177,-0.000885
1037,1.037,-175,-0.000875
1038,1.038,-173,-0.000865
1039,1.039,-171,-0.000855
1040,1.04,-169,-0.000845
1041,1.041,-166,-0.00083
1042,1.042,-163,-0.000815
1043,1.043,-160,-0.0008
1044,1.044,-157,-0.000785
1045,1.045,-154,-0.00077
1046,1.046,-151,-0.000755
1047,1.047,-148,-0.00074
1048,1.048,-146,-0.00073
1049,1.049,-144,-0.00072
1050,1.05,-142,-0.00071
1051,1.051,-141,-0.000705
1052,1.052,-139,-0.000695
1053,1.053,-137,-0.000685
1054,1.054,-134,-0.00067
1055,1.055,-131,-0.000655
1056,1.056,-128,-0.00064
1057,1.057,-126,-0.00063
1058,1.058,-125,-0.000625
1059,1.059,-124,-0.00062
1060,1.06,-123,-0.000615
1061,1.061,-122,-0.00061
1062,1.062,-120,-0.0006
1063,1.063,-119,-0.000595
1064,1.064,-117,-0.000585
1065,1.065,-116,-0.00058
1066,1.066,-114,-0.00057
1067,1.067,-113,-0.000565
1068,1.068,-111,-0.000555
1069,1.069,-110,-0.00055
1070,1.07,-108,-0.00054
1071,1.071,-106,-0.00053
1072,1.072,-104,-0.00052
1073,1.073,-103,-0.000515
1074,1.074,-102,-0.00051
1075,1.075,-101,-0.000505
1076,1.076,-100,-0.0005
1077,1.077,-99,-0.000495
1078,1.078,-98,-0.00049
1079,1.079,-97,-0.000485
1080,1.08,-95,-0.000475
1081,1.081,-94,-0.00047
1082,1.082,-93,-0.000465
1083,1.083,-92,-0.00046
1084,1.084,-90,-0.00045
1085,1.085,-90,-0.00045
1086,1.086,-89,-0.000445
1087,1.087,-88,-0.00044
1088,1.088,-87,-0.000435
1089,1.089,-89,-0.000445
1090,1.09,-90,-0.00045
1091,1.091,-91,-0.000455
1092,1.092,-92,-0.00046
1093,1.093,-91,-0.000455
1094,1.094,-90,-0.00045
1095,1.095,-89,-0.000445
1096,1.096,-88,-0.00044
1097,1.097,-88,-0.00044
1098,1.098,-88,-0.00044
1099,1.099,-88,-0.00044
1100,1.1,-88,-0.00044
1101,1.101,-87,-0.000435
1102,1.102,-86,-0.00043
1103,1.103,-85,-0.000425
1104,1.104,-83,-0.000415
1105,1.105,-85,-0.000425
1106,1.106,-86,-0.00043
1107,1.107,-87,-0.000435
1108,1.108,-88,-0.00044
1109,1.109,-88,-0.00044
1110,1.11,-87,-0.000435
1111,1.111,-86,-0.00043
1112,1.112,-85,-0.000425
1113,1.113,-85,-0.000425
1114,1.114,-85,-0.000425
1115,1.115,-85,-0.000425
1116,1.116,-84,-0.00042
1117,1.117,-84,-0.00042
1118,1.118,-84,-0.00042
1119,1.119,-84,-0.00042
1120,1.12,-83,-0.000415
1121,1.121,-83,-0.000415
1122,1.122,-83,-0.000415
1123,1.123,-83,-0.000415
1124,1.124,-83,-0.000415
1125,1.125,-83,-0.000415
1126,1.126,-82,-0.00041
1127,1.127,-82,-0.00041
1128,1.128,-81,-0.000405
1129,1.129,-82,-0.00041
1130,1.13,-82,-0.00041
1131,1.131,-82,-0.00041
1132,1.132,-82,-0.00041
1133,1.133,-83,-0.000415
1134,1.134,-84,-0.00042
1135,1.135,-85,-0.000425
1136,1.136,-85,-0.000425
1137,1.137,-85,-0.000425
1138,1.138,-85,-0.000425
1139,1.139,-85,-0.000425
1140,1.14,-84,-0.00042
1141,1.141,-84,-0.00042
1142,1.142,-83,-0.000415
1143,1.143,-82,-0.00041
1144,1.144,-81,-0.000405
1145,1.145,-81,-0.000405
1146,1.146,-81,-0.000405
1147,1.147,-81,-0.000405
1148,1.148,-81,-0.000405
1149,1.149,-81,-0.000405
1150,1.15,-81,-0.000405
1151,1.151,-81,-0.000405
1152,1.152,-81,-0.000405
1153,1.153,-80,-0.0004
1154,1.154,-79,-0.000395
1155,1.155,-78,-0.00039
1156,1.156,-77,-0.000385
1157,1.157,-78,-0.00039
1158,1.158,-78,-0.00039
1159,1.159,-79,-0.000395
1160,1.16,-79,-0.000395
1161,1.161,-80,-0.0004
1162,1.162,-81,-0.000405
1163,1.163,-82,-0.00041
1164,1.164,-82,-0.00041
1165,1.165,-81,-0.000405
1166,1.166,-79,-0.000395
1167,1.167,-78,-0.00039
1168,1.168,-76,-0.00038
1169,1.169,-74,-0.00037
1170,1.17,-72,-0.00036
1171,1.171,-70,-0.00035
1172,1.172,-68,-0.00034
1173,1.173,-69,-0.000345
1174,1.174,-69,-0.000345
1175,1.175,-70,-0.00035
1176,1.176,-70,-0.00035
1177,1.177,-70,-0.00035
1178,1.178,-69,-0.000345
1179,1.179,-69,-0.000345
1180,1.18,-68,-0.00034
1181,1.181,-67,-0.000335
1182,1.182,-66,-0.00033
1183,1.183,-65,-0.000325
1184,1.184,-64,-0.00032
1185,1.185,-63,-0.000315
1186,1.186,-62,-0.00031
1187,1.187,-61,-0.000305
1188,1.188,-59,-0.000295
1189,1.189,-58,-0.00029
1190,1.19,-57,-0.000285
1191,1.191,-56,-0.00028
1192,1.192,-55,-0.000275
1193,1.193,-54,-0.00027
1194,1.194,-52,-0.00026
1195,1.195,-51,-0.000255
1196,1.196,-49,-0.000245
1197,1.197,-48,-0.00024
1198,1.198,-47,-0.000235
1199,1.199,-46,-0.00023
1200,1.2,-45,-0.000225
1201,1.201,-45,-0.000225
1202,1.202,-44,-0.00022
1203,1.203,-43,-0.000215
1204,1.204,-42,-0.00021
1205,1.205,-41,-0.000205
1206,1.206,-40,-0.0002
1207,1.207,-39,-0.000195
1208,1.208,-37,-0.000185
1209,1.209,-35,-0.000175
1210,1.21,-33,-0.000165
1211,1.211,-31,-0.000155
1212,1.212,-28,-0.00014
1213,1.213,-28,-0.00014
1214,1.214,-28,-0.00014
1215,1.215,-28,-0.00014
1216,1.216,-28,-0.00014
1217,1.217,-28,-0.00014
1218,1.218,-27,-0.000135
1219,1.219,-27,-0.000135
1220,1.22,-26,-0.00013
1221,1.221,-25,-0.000125
1222,1.222,-24,-0.00012
1223,1.223,-23,-0.000115
1224,1.224,-22,-0.00011
1225,1.225,-22,-0.00011
1226,1.226,-22,-0.00011
1227,1.227,-22,-0.00011
1228,1.228,-21,-0.000105
1229,1.229,-22,-0.00011
1230,1.23,-22,-0.00011
1231,1.231,-22,-0.00011
1232,1.232,-22,-0.00011
1233,1.233,-22,-0.00011
1234,1.234,-22,-0.00011
1235,1.235,-22,-0.00011
1236,1.236,-22,-0.00011
1237,1.237,-24,-0.00012
1238,1.238,-25,-0.000125
1239,1.239,-26,-0.00013
1240,1.24,-27,-0.000135
1241,1.241,-28,-0.00014
1242,1.242,-28,-0.00014
1243,1.243,-29,-0.000145
1244,1.244,-29,-0.000145
1245,1.245,-30,-0.00015
1246,1.246,-30,-0.00015
1247,1.247,-31,-0.000155
1248,1.248,-31,-0.000155
1249,1.249,-32,-0.00016
1250,1.25,-33,-0.000165
1251,1.251,-34,-0.00017
1252,1.252,-34,-0.00017
1253,1.253,-35,-0.000175
1254,1.254,-35,-0.000175
1255,1.255,-36,-0.00018
1256,1.256,-36,-0.00018
1257,1.257,-39,-0.000195
1258,1.258,-41,-0.000205
1259,1.259,-44,-0.00022
1260,1.26,-46,-0.00023
1261,1.261,-46,-0.00023
1262,1.262,-46,-0.00023
1263,1.263,-46,-0.00023
1264,1.264,-45,-0.000225
1265,1.265,-46,-0.00023
1266,1.266,-46,-0.00023
1267,1.267,-47,-0.000235
1268,1.268,-47,-0.000235
1269,1.269,-47,-0.000235
1270,1.27,-47,-0.000235
1271,1.271,-47,-0.000235
1272,1.272,-47,-0.000235
1273,1.273,-48,-0.00024
1274,1.274,-48,-0.00024
1275,1.275,-49,-0.000245
1276,1.276,-49,-0.000245
1277,1.277,-50,-0.00025
1278,1.278,-51,-0.000255
1279,1.279,-52,-0.00026
1280,1.28,-52,-0.00026
1281,1.281,-52,-0.00026
1282,1.282,-52,-0.00026
1283,1.283,-52,-0.00026
1284,1.284,-52,-0.00026
1285,1.285,-53,-0.000265
1286,1.286,-53,-0.000265
1287,1.287,-53,-0.000265
1288,1.288,-53,-0.000265
1289,1.289,-54,-0.00027
1290,1.29,-55,-0.000275
1291,1.291,-56,-0.00028
1292,1.292,-56,-0.00028
1293,1.293,-56,-0.00028
1294,1.294,-56,-0.00028
1295,1.295,-56,-0.00028
1296,1.296,-56,-0.00028
1297,1.297,-57,-0.000285
1298,1.298,-57,-0.000285
1299,1.299,-58,-0.00029
1300,1.3,-58,-0.00029
1301,1.301,-59,-0.000295
1302,1.302,-59,-0.000295
1303,1.303,-59,-0.000295
1304,1.304,-59,-0.000295
1305,1.305,-59,-0.000295
1306,1.306,-58,-0.00029
1307,1.307,-58,-0.00029
1308,1.308,-57,-0.000285
1309,1.309,-58,-0.00029
1310,1.31,-59,-0.000295
1311,1.311,-60,-0.0003
1312,1.312,-61,-0.000305
1313,1.313,-61,-0.000305
1314,1.314,-60,-0.0003
1315,1.315,-60,-0.0003
1316,1.316,-59,-0.000295
1317,1.317,-60,-0.0003
1318,1.318,-60,-0.0003
1319,1.319,-61,-0.000305
1320,1.32,-61,-0.000305
1321,1.321,-60,-0.0003
1322,1.322,-59,-0.000295
1323,1.323,-58,-0.00029
1324,1.324,-56,-0.00028
1325,1.325,-58,-0.00029
1326,1.326,-59,-0.000295
1327,1.327,-61,-0.000305
1328,1.328,-62,-0.00031
1329,1.329,-61,-0.000305
1330,1.33,-60,-0.0003
1331,1.331,-59,-0.000295
1332,1.332,-57,-0.000285
1333,1.333,-57,-0.000285
1334,1.334,-57,-0.000285
1335,1.335,-57,-0.000285
1336,1.336,-57,-0.000285
1337,1.337,-57,-0.000285
1338,1.338,-57,-0.000285
1339,1.339,-57,-0.000285
1340,1.34,-57,-0.000285
1341,1.341,-57,-0.000285
1342,1.342,-56,-0.00028
1343,1.343,-55,-0.000275
1344,1.344,-54,-0.00027
1345,1.345,-55,-0.000275
1346,1.346,-55,-0.000275
1347,1.347,-55,-0.000275
1348,1.348,-55,-0.000275
1349,1.349,-55,-0.000275
1350,1.35,-54,-0.00027
1351,1.351,-54,-0.00027
1352,1.352,-53,-0.000265
1353,1.353,-53,-0.000265
1354,1.354,-52,-0.00026
1355,1.355,-51,-0.000255
1356,1.356,-50,-0.00025
1357,1.357,-48,-0.00024
1358,1.358,-46,-0.00023
1359,1.359,-43,-0.000215
1360,1.36,-41,-0.000205
1361,1.361,-38,-0.00019
1362,1.362,-35,-0.000175
1363,1.363,-32,-0.00016
1364,1.364,-29,-0.000145
1365,1.365,-28,-0.00014
1366,1.366,-27,-0.000135
1367,1.367,-26,-0.00013
1368,1.368,-25,-0.000125
1369,1.369,-24,-0.00012
1370,1.37,-22,-0.00011
1371,1.371,-20,-0.0001
1372,1.372,-18,-9e-05
1373,1.373,-18,-9e-05
1374,1.374,-17,-8.5e-05
1375,1.375,-17,-8.5e-05
1376,1.376,-16,-8e-05
1377,1.377,-15,-7.5e-05
1378,1.378,-13,-6.5e-05
1379,1.379,-12,-6e-05
1380,1.38,-10,-5e-05
1381,1.381,-9,-4.5e-05
1382,1.382,-7,-3.5e-05
1383,1.383,-5,-2.5e-05
1384,1.384,-3,-1.5e-05
1385,1.385,-2,-1e-05
1386,1.386,-1,-5e-06
1387,1.387,0,0.0
1388,1.388,2,1e-05
1389,1.389,4,2e-05
1390,1.39,7,3.5e-05
1391,1.391,10,5e-05
1392,1.392,13,6.5e-05
1393,1.393,14,7e-05
1394,1.394,15,7.5e-05
1395,1.395,15,7.5e-05
1396,1.396,16,8e-05
1397,1.397,16,8e-05
1398,1.398,17,8.5e-05
1399,1.399,17,8.5e-05
1400,1.4,18,9e-05
1401,1.401,16,8e-05
1402,1.402,15,7.5e-05
1403,1.403,14,7e-05
1404,1.404,13,6.5e-05
1405,1.405,13,6.5e-05
1406,1.406,13,6.5e-05
1407,1.407,13,6.5e-05
1408,1.408,13,6.5e-05
1409,1.409,12,6e-05
1410,1.41,12,6e-05
1411,1.411,11,5.5e-05
1412,1.412,11,5.5e-05
1413,1.413,10,5e-05
1414,1.414,10,5e-05
1415,1.415,10,5e-05
1416,1.416,10,5e-05
1417,1.417,8,4e-05
1418,1.418,6,3e-05
1419,1.419,5,2.5e-05
1420,1.42,3,1.5e-05
1421,1.421,1,5e-06
1422,1.422,-1,-5e-06
1423,1.423,-2,-1e-05
1424,1.424,-4,-2e-05
1425,1.425,-7,-3.5e-05
1426,1.426,-10,-5e-05
1427,1.427,-12,-6e-05
1428,1.428,-15,-7.5e-05
1429,1.429,-17,-8.5e-05
1430,1.43,-18,-9e-05
1431,1.431,-20,-0.0001
1432,1.432,-21,-0.000105
1433,1.433,-23,-0.000115
1434,1.434,-24,-0.00012
1435,1.435,-26,-0.00013
1436,1.436,-27,-0.000135
1437,1.437,-30,-0.00015
1438,1.438,-32,-0.00016
1439,1.439,-35,-0.000175
1440,1.44,-37,-0.000185
1441,1.441,-38,-0.00019
1442,1.442,-39,-0.000195
1443,1.443,-40,-0.0002
1444,1.444,-40,-0.0002
1445,1.445,-43,-0.000215
1446,1.446,-46,-0.00023
1447,1.447,-48,-0.00024
1448,1.448,-51,-0.000255
1449,1.449,-53,-0.000265
1450,1.45,-55,-0.000275
1451,1.451,-57,-0.000285
1452,1.452,-59,-0.000295
1453,1.453,-60,-0.0003
1454,1.454,-60,-0.0003
1455,1.455,-61,-0.000305
1456,1.456,-61,-0.000305
1457,1.457,-63,-0.000315
1458,1.458,-64,-0.00032
1459,1.459,-66,-0.00033
1460,1.46,-67,-0.000335
1461,1.461,-66,-0.00033
1462,1.462,-64,-0.00032
1463,1.463,-63,-0.000315
1464,1.464,-61,-0.000305
1465,1.465,-61,-0.000305
1466,1.466,-61,-0.000305
1467,1.467,-61,-0.000305
1468,1.468,-61,-0.000305
1469,1.469,-62,-0.00031
1470,1.47,-63,-0.000315
1471,1.471,-64,-0.00032
1472,1.472,-65,-0.000325
1473,1.473,-65,-0.000325
1474,1.474,-64,-0.00032
1475,1.475,-64,-0.00032
1476,1.476,-63,-0.000315
1477,1.477,-64,-0.00032
1478,1.478,-64,-0.00032
1479,1.479,-64,-0.00032
1480,1.48,-64,-0.00032
1481,1.481,-64,-0.00032
1482,1.482,-63,-0.000315
1483,1.483,-63,-0.000315
1484,1.484,-62,-0.00031
1485,1.485,-62,-0.00031
1486,1.486,-62,-0.00031
1487,1.487,-62,-0.00031
1488,1.488,-61,-0.000305
1489,1.489,-62,-0.00031
1490,1.49,-62,-0.00031
1491,1.491,-63,-0.000315
1492,1.492,-63,-0.000315
1493,1.493,-63,-0.000315
1494,1.494,-63,-0.000315
1495,1.495,-63,-0.000315
1496,1.496,-62,-0.00031
1497,1.497,-62,-0.00031
1498,1.498,-62,-0.00031
1499,1.499,-62,-0.00031
1500,1.5,-61,-0.000305
1501,1.501,-62,-0.00031
1502,1.502,-62,-0.00031
1503,1.503,-62,-0.00031
1504,1.504,-62,-0.00031
1505,1.505,-61,-0.000305
1506,1.506,-60,-0.0003
1507,1.507,-59,-0.000295
1508,1.508,-57,-0.000285
1509,1.509,-57,-0.000285
1510,1.51,-57,-0.000285
1511,1.511,-57,-0.000285
1512,1.512,-57,-0.000285
1513,1.513,-58,-0.00029
1514,1.514,-59,-0.000295
1515,1.515,-60,-0.0003
1516,1.516,-61,-0.000305
1517,1.517,-61,-0.000305
1518,1.518,-61,-0.000305
1519,1.519,-61,-0.000305
1520,1.52,-61,-0.000305
1521,1.521,-61,-0.000305
1522,1.522,-61,-0.000305
1523,1.523,-61,-0.000305
1524,1.524,-61,-0.000305
1525,1.525,-58,-0.00029
1526,1.526,-55,-0.000275
1527,1.527,-51,-0.000255
1528,1.528,-48,-0.00024
1529,1.529,-40,-0.0002
1530,1.53,-31,-0.000155
1531,1.531,-23,-0.000115
1532,1.532,-14,-7e-05
1533,1.533,-5,-2.5e-05
1534,1.534,4,2e-05
1535,1.535,14,7e-05
1536,1.536,23,0.000115
1537,1.537,33,0.000165
1538,1.538,43,0.000215
1539,1.539,54,0.00027
1540,1.54,64,0.00032
1541,1.541,74,0.00037
1542,1.542,85,0.000425
1543,1.543,95,0.000475
1544,1.544,106,0.00053
1545,1.545,116,0.00058
1546,1.546,126,0.00063
1547,1.547,137,0.000685
1548,1.548,147,0.000735
1549,1.549,155,0.000775
1550,1.55,164,0.00082
1551,1.551,172,0.00086
1552,1.552,181,0.000905
1553,1.553,192,0.00096
1554,1.554,202,0.00101
1555,1.555,213,0.001065
1556,1.556,224,0.00112
1557,1.557,232,0.00116
1558,1.558,239,0.001195
1559,1.559,247,0.001235
1560,1.56,254,0.00127
1561,1.561,262,0.00131
1562,1.562,270,0.00135
1563,1.563,277,0.001385
1564,1.564,285,0.001425
1565,1.565,292,0.00146
1566,1.566,299,0.001495
1567,1.567,306,0.00153
1568,1.568,313,0.001565
1569,1.569,311,0.001555
1570,1.57,309,0.001545
1571,1.571,306,0.00153
1572,1.572,304,0.00152
1573,1.573,287,0.001435
1574,1.574,269,0.001345
1575,1.575,250,0.00125
1576,1.576,232,0.00116
1577,1.577,213,0.001065
1578,1.578,193,0.000965
1579,1.579,174,0.00087
1580,1.58,154,0.00077
1581,1.581,148,0.00074
1582,1.582,143,0.000715
1583,1.583,138,0.00069
1584,1.584,133,0.000665
1585,1.585,121,0.000605
1586,1.586,109,0.000545
1587,1.587,96,0.00048
1588,1.588,84,0.00042
1589,1.589,62,0.00031
1590,1.59,40,0.0002
1591,1.591,18,9e-05
1592,1.592,-4,-2e-05
1593,1.593,-24,-0.00012
1594,1.594,-44,-0.00022
1595,1.595,-64,-0.00032
1596,1.596,-84,-0.00042
1597,1.597,-103,-0.000515
1598,1.598,-121,-0.000605
1599,1.599,-140,-0.0007
1600,1.6,-159,-0.000795
1601,1.601,-170,-0.00085
1602,1.602,-180,-0.0009
1603,1.603,-190,-0.00095
1604,1.604,-200,-0.001
1605,1.605,-199,-0.000995
1606,1.606,-197,-0.000985
1607,1.607,-195,-0.000975
1608,1.608,-194,-0.00097
1609,1.609,-192,-0.00096
1610,1.61,-190,-0.00095
1611,1.611,-188,-0.00094
1612,1.612,-187,-0.000935
1613,1.613,-183,-0.000915
1614,1.614,-180,-0.0009
1615,1.615,-177,-0.000885
1616,1.616,-174,-0.00087
1617,1.617,-172,-0.00086
1618,1.618,-170,-0.00085
1619,1.619,-168,-0.00084
1620,1.62,-166,-0.00083
1621,1.621,-162,-0.00081
1622,1.622,-159,-0.000795
1623,1.623,-155,-0.000775
1624,1.624,-152,-0.00076
1625,1.625,-151,-0.000755
1626,1.626,-151,-0.000755
1627,1.627,-151,-0.000755
1628,1.628,-150,-0.00075
1629,1.629,-149,-0.000745
1630,1.63,-147,-0.000735
1631,1.631,-145,-0.000725
1632,1.632,-144,-0.00072
1633,1.633,-142,-0.00071
1634,1.634,-140,-0.0007
1635,1.635,-138,-0.00069
1636,1.636,-137,-0.000685
1637,1.637,-135,-0.000675
1638,1.638,-133,-0.000665
1639,1.639,-131,-0.000655
1640,1.64,-129,-0.000645
1641,1.641,-128,-0.00064
1642,1.642,-128,-0.00064
1643,1.643,-128,-0.00064
1644,1.644,-128,-0.00064
1645,1.645,-127,-0.000635
1646,1.646,-126,-0.00063
1647,1.647,-125,-0.000625
1648,1.648,-123,-0.000615
1649,1.649,-122,-0.00061
1650,1.65,-120,-0.0006
1651,1.651,-118,-0.00059
1652,1.652,-116,-0.00058
1653,1.653,-113,-0.000565
1654,1.654,-111,-0.000555
1655,1.655,-108,-0.00054
1656,1.656,-106,-0.00053
1657,1.657,-105,-0.000525
1658,1.658,-105,-0.000525
1659,1.659,-105,-0.000525
1660,1.66,-105,-0.000525
1661,1.661,-106,-0.00053
1662,1.662,-106,-0.00053
1663,1.663,-106,-0.00053
1664,1.664,-106,-0.00053
1665,1.665,-105,-0.000525
1666,1.666,-104,-0.00052
1667,1.667,-103,-0.000515
1668,1.668,-102,-0.00051
1669,1.669,-102,-0.00051
1670,1.67,-102,-0.00051
1671,1.671,-102,-0.00051
1672,1.672,-102,-0.00051
1673,1.673,-103,-0.000515
1674,1.674,-103,-0.000515
1675,1.675,-104,-0.00052
1676,1.676,-104,-0.00052
1677,1.677,-105,-0.000525
1678,1.678,-106,-0.00053
1679,1.679,-107,-0.000535
1680,1.68,-108,-0.00054
1681,1.681,-107,-0.000535
1682,1.682,-106,-0.00053
1683,1.683,-105,-0.000525
1684,1.684,-103,-0.000515
1685,1.685,-103,-0.000515
1686,1.686,-102,-0.00051
1687,1.687,-102,-0.00051
1688,1.688,-101,-0.000505
1689,1.689,-101,-0.000505
1690,1.69,-100,-0.0005
1691,1.691,-100,-0.0005
1692,1.692,-99,-0.000495
1693,1.693,-100,-0.0005
1694,1.694,-100,-0.0005
1695,1.695,-100,-0.0005
1696,1.696,-100,-0.0005
1697,1.697,-101,-0.000505
1698,1.698,-102,-0.00051
1699,1.699,-103,-0.000515
1700,1.7,-103,-0.000515
1701,1.701,-104,-0.00052
1702,1.702,-104,-0.00052
1703,1.703,-104,-0.00052
1704,1.704,-104,-0.00052
1705,1.705,-103,-0.000515
1706,1.706,-102,-0.00051
1707,1.707,-101,-0.000505
1708,1.708,-100,-0.0005
1709,1.709,-101,-0.000505
1710,1.71,-101,-0.000505
1711,1.711,-102,-0.00051
1712,1.712,-102,-0.00051
1713,1.713,-102,-0.00051
1714,1.714,-101,-0.000505
1715,1.715,-101,-0.000505
1716,1.716,-100,-0.0005
1717,1.717,-100,-0.0005
1718,1.718,-100,-0.0005
1719,1.719,-100,-0.0005
1720,1.72,-99,-0.000495
1721,1.721,-99,-0.000495
1722,1.722,-98,-0.00049
1723,1.723,-97,-0.000485
1724,1.724,-96,-0.00048
1725,1.725,-97,-0.000485
1726,1.726,-97,-0.000485
1727,1.727,-97,-0.000485
1728,1.728,-97,-0.000485
1729,1.729,-97,-0.000485
1730,1.73,-97,-0.000485
1731,1.731,-97,-0.000485
1732,1.732,-97,-0.000485
1733,1.733,-98,-0.00049
1734,1.734,-98,-0.00049
1735,1.735,-98,-0.00049
1736,1.736,-98,-0.00049
1737,1.737,-97,-0.000485
1738,1.738,-96,-0.00048
1739,1.739,-95,-0.000475
1740,1.74,-94,-0.00047
1741,1.741,-93,-0.000465
1742,1.742,-92,-0.00046
1743,1.743,-91,-0.000455
1744,1.744,-90,-0.00045
1745,1.745,-90,-0.00045
1746,1.746,-90,-0.00045
1747,1.747,-90,-0.00045
1748,1.748,-90,-0.00045
1749,1.749,-90,-0.00045
1750,1.75,-89,-0.000445
1751,1.751,-88,-0.00044
1752,1.752,-87,-0.000435
1753,1.753,-86,-0.00043
1754,1.754,-85,-0.000425
1755,1.755,-84,-0.00042
1756,1.756,-83,-0.000415
1757,1.757,-83,-0.000415
1758,1.758,-82,-0.00041
1759,1.759,-81,-0.000405
1760,1.76,-80,-0.0004
1761,1.761,-79,-0.000395
1762,1.762,-78,-0.00039
1763,1.763,-77,-0.000385
1764,1.764,-76,-0.00038
1765,1.765,-75,-0.000375
1766,1.766,-73,-0.000365
1767,1.767,-71,-0.000355
1768,1.768,-69,-0.000345
1769,1.769,-67,-0.000335
1770,1.77,-66,-0.00033
1771,1.771,-65,-0.000325
1772,1.772,-63,-0.000315
1773,1.773,-62,-0.00031
1774,1.774,-60,-0.0003
1775,1.775,-58,-0.00029
1776,1.776,-57,-0.000285
1777,1.777,-57,-0.000285
1778,1.778,-57,-0.000285
1779,1.779,-57,-0.000285
1780,1.78,-57,-0.000285
1781,1.781,-56,-0.00028
1782,1.782,-54,-0.00027
1783,1.783,-53,-0.000265
1784,1.784,-51,-0.000255
1785,1.785,-50,-0.00025
1786,1.786,-48,-0.00024
1787,1.787,-46,-0.00023
1788,1.788,-44,-0.00022
1789,1.789,-41,-0.000205
1790,1.79,-39,-0.000195
1791,1.791,-37,-0.000185
1792,1.792,-35,-0.000175
1793,1.793,-34,-0.00017
1794,1.794,-33,-0.000165
1795,1.795,-33,-0.000165
1796,1.796,-32,-0.00016
1797,1.797,-32,-0.00016
1798,1.798,-31,-0.000155
1799,1.799,-30,-0.00015
1800,1.8,-29,-0.000145
1801,1.801,-29,-0.000145
1802,1.802,-29,-0.000145
1803,1.803,-29,-0.000145
1804,1.804,-29,-0.000145
1805,1.805,-29,-0.000145
1806,1.806,-29,-0.000145
1807,1.807,-29,-0.000145
1808,1.808,-28,-0.00014
1809,1.809,-28,-0.00014
1810,1.81,-28,-0.00014
1811,1.811,-28,-0.00014
1812,1.812,-27,-0.000135
1813,1.813,-28,-0.00014
1814,1.814,-28,-0.00014
1815,1.815,-29,-0.000145
1816,1.816,-29,-0.000145
1817,1.817,-31,-0.000155
1818,1.818,-33,-0.000165
1819,1.819,-34,-0.00017
1820,1.82,-36,-0.00018
1821,1.821,-36,-0.00018
1822,1.822,-36,-0.00018
1823,1.823,-36,-0.00018
1824,1.824,-36,-0.00018
1825,1.825,-37,-0.000185
1826,1.826,-38,-0.00019
1827,1.827,-39,-0.000195
1828,1.828,-40,-0.0002
1829,1.829,-41,-0.000205
1830,1.83,-41,-0.000205
1831,1.831,-41,-0.000205
1832,1.832,-41,-0.000205
1833,1.833,-41,-0.000205
1834,1.834,-41,-0.000205
1835,1.835,-41,-0.000205
1836,1.836,-40,-0.0002
1837,1.837,-41,-0.000205
1838,1.838,-42,-0.00021
1839,1.839,-43,-0.000215
1840,1.84,-43,-0.000215
1841,1.841,-44,-0.00022
1842,1.842,-45,-0.000225
1843,1.843,-46,-0.00023
1844,1.844,-47,-0.000235
1845,1.845,-48,-0.00024
1846,1.846,-49,-0.000245
1847,1.847,-50,-0.00025
1848,1.848,-51,-0.000255
1849,1.849,-51,-0.000255
1850,1.85,-51,-0.000255
1851,1.851,-51,-0.000255
1852,1.852,-51,-0.000255
1853,1.853,-52,-0.00026
1854,1.854,-52,-0.00026
1855,1.855,-53,-0.000265
1856,1.856,-53,-0.000265
1857,1.857,-53,-0.000265
1858,1.858,-53,-0.000265
1859,1.859,-53,-0.000265
1860,1.86,-53,-0.000265
1861,1.861,-54,-0.00027
1862,1.862,-55,-0.000275
1863,1.863,-56,-0.00028
1864,1.864,-56,-0.00028
1865,1.865,-56,-0.00028
1866,1.866,-56,-0.00028
1867,1.867,-56,-0.00028
1868,1.868,-55,-0.000275
1869,1.869,-55,-0.000275
1870,1.87,-55,-0.000275
1871,1.871,-55,-0.000275
1872,1.872,-55,-0.000275
1873,1.873,-56,-0.00028
1874,1.874,-57,-0.000285
1875,1.875,-58,-0.00029
1876,1.876,-58,-0.00029
1877,1.877,-59,-0.000295
1878,1.878,-61,-0.000305
1879,1.879,-62,-0.00031
1880,1.88,-63,-0.000315
1881,1.881,-62,-0.00031
1882,1.882,-61,-0.000305
1883,1.883,-60,-0.0003
1884,1.884,-58,-0.00029
1885,1.885,-59,-0.000295
1886,1.886,-59,-0.000295
1887,1.887,-60,-0.0003
1888,1.888,-60,-0.0003
1889,1.889,-60,-0.0003
1890,1.89,-60,-0.0003
1891,1.891,-60,-0.0003
1892,1.892,-59,-0.000295
1893,1.893,-60,-0.0003
1894,1.894,-60,-0.0003
1895,1.895,-61,-0.000305
1896,1.896,-61,-0.000305
1897,1.897,-61,-0.000305
1898,1.898,-61,-0.000305
1899,1.899,-61,-0.000305
1900,1.9,-60,-0.0003
1901,1.901,-60,-0.0003
1902,1.902,-60,-0.0003
1903,1.903,-60,-0.0003
1904,1.904,-59,-0.000295
1905,1.905,-59,-0.000295
1906,1.906,-59,-0.000295
1907,1.907,-59,-0.000295
1908,1.908,-59,-0.000295
1909,1.909,-58,-0.00029
1910,1.91,-57,-0.000285
1911,1.911,-56,-0.00028
1912,1.912,-55,-0.000275
1913,1.913,-55,-0.000275
1914,1.914,-55,-0.000275
1915,1.915,-55,-0.000275
1916,1.916,-55,-0.000275
1917,1.917,-55,-0.000275
1918,1.918,-54,-0.00027
1919,1.919,-53,-0.000265
1920,1.92,-52,-0.00026
1921,1.921,-52,-0.00026
1922,1.922,-52,-0.00026
1923,1.923,-52,-0.00026
1924,1.924,-52,-0.00026
1925,1.925,-52,-0.00026
1926,1.926,-51,-0.000255
1927,1.927,-50,-0.00025
1928,1.928,-49,-0.000245
1929,1.929,-49,-0.000245
1930,1.93,-48,-0.00024
1931,1.931,-48,-0.00024
1932,1.932,-47,-0.000235
1933,1.933,-47,-0.000235
1934,1.934,-46,-0.00023
1935,1.935,-45,-0.000225
1936,1.936,-44,-0.00022
1937,1.937,-44,-0.00022
1938,1.938,-44,-0.00022
1939,1.939,-44,-0.00022
1940,1.94,-44,-0.00022
1941,1.941,-43,-0.000215
1942,1.942,-41,-0.000205
1943,1.943,-39,-0.000195
1944,1.944,-37,-0.000185
1945,1.945,-35,-0.000175
1946,1.946,-34,-0.00017
1947,1.947,-32,-0.00016
1948,1.948,-31,-0.000155
1949,1.949,-29,-0.000145
1950,1.95,-28,-0.00014
1951,1.951,-27,-0.000135
1952,1.952,-26,-0.00013
1953,1.953,-25,-0.000125
1954,1.954,-23,-0.000115
1955,1.955,-21,-0.000105
1956,1.956,-20,-0.0001
1957,1.957,-18,-9e-05
1958,1.958,-17,-8.5e-05
1959,1.959,-15,-7.5e-05
1960,1.96,-14,-7e-05
1961,1.961,-13,-6.5e-05
1962,1.962,-12,-6e-05
1963,1.963,-12,-6e-05
1964,1.964,-11,-5.5e-05
1965,1.965,-9,-4.5e-05
1966,1.966,-7,-3.5e-05
1967,1.967,-4,-2e-05
1968,1.968,-2,-1e-05
1969,1.969,0,0.0
1970,1.97,2,1e-05
1971,1.971,4,2e-05
1972,1.972,5,2.5e-05
1973,1.973,6,3e-05
1974,1.974,7,3.5e-05
1975,1.975,8,4e-05
1976,1.976,9,4.5e-05
1977,1.977,11,5.5e-05
1978,1.978,13,6.5e-05
1979,1.979,15,7.5e-05
1980,1.98,17,8.5e-05
1981,1.981,18,9e-05
1982,1.982,19,9.5e-05
1983,1.983,20,0.0001
1984,1.984,21,0.000105
1985,1.985,22,0.00011
1986,1.986,23,0.000115
1987,1.987,25,0.000125
1988,1.988,26,0.00013
1989,1.989,25,0.000125
1990,1.99,23,0.000115
1991,1.991,22,0.00011
1992,1.992,20,0.0001
1993,1.993,20,0.0001
1994,1.994,20,0.0001
1995,1.995,20,0.0001
1996,1.996,20,0.0001
1997,1.997,18,9e-05
1998,1.998,16,8e-05
1999,1.999,15,7.5e-05
2000,2.0,13,6.5e-05
2001,2.001,12,6e-05
2002,2.002,11,5.5e-05
2003,2.003,10,5e-05
2004,2.004,10,5e-05
2005,2.005,7,3.5e-05
2006,2.006,5,2.5e-05
2007,2.007,2,1e-05
2008,2.008,0,0.0
2009,2.009,-1,-5e-06
2010,2.01,-2,-1e-05
2011,2.011,-3,-1.5e-05
2012,2.012,-4,-2e-05
2013,2.013,-6,-3e-05
2014,2.014,-9,-4.5e-05
2015,2.015,-11,-5.5e-05
2016,2.016,-13,-6.5e-05
2017,2.017,-15,-7.5e-05
2018,2.018,-16,-8e-05
2019,2.019,-18,-9e-05
2020,2.02,-19,-9.5e-05
2021,2.021,-22,-0.00011
2022,2.022,-24,-0.00012
2023,2.023,-27,-0.000135
2024,2.024,-29,-0.000145
2025,2.025,-30,-0.00015
2026,2.026,-30,-0.00015
2027,2.027,-31,-0.000155
2028,2.028,-31,-0.000155
2029,2.029,-33,-0.000165
2030,2.03,-36,-0.00018
2031,2.031,-38,-0.00019
2032,2.032,-40,-0.0002
2033,2.033,-42,-0.00021
2034,2.034,-43,-0.000215
2035,2.035,-45,-0.000225
2036,2.036,-46,-0.00023
2037,2.037,-47,-0.000235
2038,2.038,-47,-0.000235
2039,2.039,-47,-0.000235
2040,2.04,-47,-0.000235
2041,2.041,-48,-0.00024
2042,2.042,-48,-0.00024
2043,2.043,-48,-0.00024
2044,2.044,-48,-0.00024
2045,2.045,-50,-0.00025
2046,2.046,-51,-0.000255
2047,2.047,-53,-0.000265
2048,2.048,-54,-0.00027
2049,2.049,-54,-0.00027
2050,2.05,-53,-0.000265
2051,2.051,-52,-0.00026
2052,2.052,-51,-0.000255
2053,2.053,-52,-0.00026
2054,2.054,-52,-0.00026
2055,2.055,-52,-0.00026
2056,2.056,-52,-0.00026
2057,2.057,-52,-0.00026
2058,2.058,-51,-0.000255
2059,2.059,-51,-0.000255
2060,2.06,-50,-0.00025
2061,2.061,-50,-0.00025
2062,2.062,-50,-0.00025
2063,2.063,-50,-0.00025
2064,2.064,-49,-0.000245
2065,2.065,-49,-0.000245
2066,2.066,-49,-0.000245
2067,2.067,-49,-0.000245
2068,2.068,-49,-0.000245
2069,2.069,-49,-0.000245
2070,2.07,-49,-0.000245
2071,2.071,-49,-0.000245
2072,2.072,-49,-0.000245
2073,2.073,-50,-0.00025
2074,2.074,-50,-0.00025
2075,2.075,-51,-0.000255
2076,2.076,-51,-0.000255
2077,2.077,-50,-0.00025
2078,2.078,-49,-0.000245
2079,2.079,-48,-0.00024
2080,2.08,-46,-0.00023
2081,2.081,-46,-0.00023
2082,2.082,-46,-0.00023
2083,2.083,-46,-0.00023
2084,2.084,-45,-0.000225
2085,2.085,-46,-0.00023
2086,2.086,-46,-0.00023
2087,2.087,-46,-0.00023
2088,2.088,-46,-0.00023
2089,2.089,-47,-0.000235
2090,2.09,-49,-0.000245
2091,2.091,-50,-0.00025
2092,2.092,-51,-0.000255
2093,2.093,-50,-0.00025
2094,2.094,-49,-0.000245
2095,2.095,-48,-0.00024
2096,2.096,-47,-0.000235
2097,2.097,-48,-0.00024
2098,2.098,-48,-0.00024
2099,2.099,-48,-0.00024
2100,2.1,-48,-0.00024
2101,2.101,-48,-0.00024
2102,2.102,-48,-0.00024
2103,2.103,-48,-0.00024
2104,2.104,-47,-0.000235
2105,2.105,-47,-0.000235
2106,2.106,-47,-0.000235
2107,2.107,-47,-0.000235
2108,2.108,-47,-0.000235
2109,2.109,-46,-0.00023
2110,2.11,-45,-0.000225
2111,2.111,-44,-0.00022
2112,2.112,-42,-0.00021
2113,2.113,-39,-0.000195
2114,2.114,-36,-0.00018
2115,2.115,-32,-0.00016
2116,2.116,-29,-0.000145
2117,2.117,-21,-0.000105
2118,2.118,-12,-6e-05
2119,2.119,-4,-2e-05
2120,2.12,5,2.5e-05
2121,2.121,15,7.5e-05
2122,2.122,26,0.00013
2123,2.123,36,0.00018
2124,2.124,47,0.000235
2125,2.125,57,0.000285
2126,2.126,68,0.00034
2127,2.127,79,0.000395
2128,2.128,89,0.000445
2129,2.129,100,0.0005
2130,2.13,110,0.00055
2131,2.131,120,0.0006
2132,2.132,130,0.00065
2133,2.133,139,0.000695
2134,2.134,149,0.000745
2135,2.135,159,0.000795
2136,2.136,169,0.000845
2137,2.137,179,0.000895
2138,2.138,190,0.00095
2139,2.139,201,0.001005
2140,2.14,212,0.00106
2141,2.141,222,0.00111
2142,2.142,231,0.001155
2143,2.143,240,0.0012
2144,2.144,250,0.00125
2145,2.145,258,0.00129
2146,2.146,267,0.001335
2147,2.147,275,0.001375
2148,2.148,284,0.00142
2149,2.149,292,0.00146
2150,2.15,300,0.0015
2151,2.151,309,0.001545
2152,2.152,317,0.001585
2153,2.153,321,0.001605
2154,2.154,324,0.00162
2155,2.155,327,0.001635
2156,2.156,330,0.00165
2157,2.157,321,0.001605
2158,2.158,311,0.001555
2159,2.159,300,0.0015
2160,2.16,290,0.00145
2161,2.161,270,0.00135
2162,2.162,248,0.00124
2163,2.163,227,0.001135
2164,2.164,206,0.00103
2165,2.165,196,0.00098
2166,2.166,188,0.00094
2167,2.167,180,0.0009
2168,2.168,172,0.00086
2169,2.169,166,0.00083
2170,2.17,160,0.0008
2171,2.171,154,0.00077
2172,2.172,148,0.00074
2173,2.173,132,0.00066
2174,2.174,115,0.000575
2175,2.175,98,0.00049
2176,2.176,81,0.000405
2177,2.177,60,0.0003
2178,2.178,40,0.0002
2179,2.179,19,9.5e-05
2180,2.18,-1,-5e-06
2181,2.181,-20,-0.0001
2182,2.182,-38,-0.00019
2183,2.183,-56,-0.00028
2184,2.184,-74,-0.00037
2185,2.185,-92,-0.00046
2186,2.186,-110,-0.00055
2187,2.187,-128,-0.00064
2188,2.188,-145,-0.000725
2189,2.189,-153,-0.000765
2190,2.19,-159,-0.000795
2191,2.191,-165,-0.000825
2192,2.192,-172,-0.00086
2193,2.193,-172,-0.00086
2194,2.194,-171,-0.000855
2195,2.195,-171,-0.000855
2196,2.196,-170,-0.00085
2197,2.197,-170,-0.00085
2198,2.198,-170,-0.00085
2199,2.199,-170,-0.00085
2200,2.2,-169,-0.000845
2201,2.201,-168,-0.00084
2202,2.202,-166,-0.00083
2203,2.203,-164,-0.00082
2204,2.204,-162,-0.00081
2205,2.205,-160,-0.0008
2206,2.206,-158,-0.00079
2207,2.207,-156,-0.00078
2208,2.208,-155,-0.000775
2209,2.209,-152,-0.00076
2210,2.21,-150,-0.00075
2211,2.211,-148,-0.00074
2212,2.212,-146,-0.00073
2213,2.213,-144,-0.00072
2214,2.214,-143,-0.000715
2215,2.215,-142,-0.00071
2216,2.216,-140,-0.0007
2217,2.217,-139,-0.000695
2218,2.218,-138,-0.00069
2219,2.219,-137,-0.000685
2220,2.22,-135,-0.000675
2221,2.221,-133,-0.000665
2222,2.222,-130,-0.00065
2223,2.223,-127,-0.000635
2224,2.224,-124,-0.00062
2225,2.225,-123,-0.000615
2226,2.226,-123,-0.000615
2227,2.227,-123,-0.000615
2228,2.228,-122,-0.00061
2229,2.229,-120,-0.0006
2230,2.23,-118,-0.00059
2231,2.231,-116,-0.00058
2232,2.232,-114,-0.00057
2233,2.233,-111,-0.000555
2234,2.234,-109,-0.000545
2235,2.235,-106,-0.00053
2236,2.236,-104,-0.00052
2237,2.237,-103,-0.000515
2238,2.238,-102,-0.00051
2239,2.239,-102,-0.00051
2240,2.24,-101,-0.000505
2241,2.241,-100,-0.0005
2242,2.242,-98,-0.00049
2243,2.243,-96,-0.00048
2244,2.244,-95,-0.000475
2245,2.245,-94,-0.00047
2246,2.246,-93,-0.000465
2247,2.247,-92,-0.00046
2248,2.248,-91,-0.000455
2249,2.249,-91,-0.000455
2250,2.25,-90,-0.00045
2251,2.251,-89,-0.000445
2252,2.252,-88,-0.00044
2253,2.253,-88,-0.00044
2254,2.254,-88,-0.00044
2255,2.255,-88,-0.00044
2256,2.256,-88,-0.00044
2257,2.257,-88,-0.00044
2258,2.258,-88,-0.00044
2259,2.259,-88,-0.00044
2260,2.26,-87,-0.000435
2261,2.261,-87,-0.000435
2262,2.262,-86,-0.00043
2263,2.263,-85,-0.000425
2264,2.264,-84,-0.00042
2265,2.265,-84,-0.00042
2266,2.266,-84,-0.00042
2267,2.267,-84,-0.00042
2268,2.268,-84,-0.00042
2269,2.269,-84,-0.00042
2270,2.27,-84,-0.00042
2271,2.271,-84,-0.00042
2272,2.272,-84,-0.00042
2273,2.273,-85,-0.000425
2274,2.274,-86,-0.00043
2275,2.275,-87,-0.000435
2276,2.276,-87,-0.000435
2277,2.277,-87,-0.000435
2278,2.278,-86,-0.00043
2279,2.279,-85,-0.000425
2280,2.28,-84,-0.00042
2281,2.281,-84,-0.00042
2282,2.282,-83,-0.000415
2283,2.283,-83,-0.000415
2284,2.284,-82,-0.00041
2285,2.285,-82,-0.00041
2286,2.286,-82,-0.00041
2287,2.287,-82,-0.00041
2288,2.288,-81,-0.000405
2289,2.289,-81,-0.000405
2290,2.29,-81,-0.000405
2291,2.291,-81,-0.000405
2292,2.292,-80,-0.0004
2293,2.293,-81,-0.000405
2294,2.294,-81,-0.000405
2295,2.295,-81,-0.000405
2296,2.296,-81,-0.000405
2297,2.297,-81,-0.000405
2298,2.298,-81,-0.000405
2299,2.299,-81,-0.000405
2300,2.3,-80,-0.0004
2301,2.301,-80,-0.0004
2302,2.302,-79,-0.000395
2303,2.303,-79,-0.000395
2304,2.304,-78,-0.00039
2305,2.305,-78,-0.00039
2306,2.306,-77,-0.000385
2307,2.307,-77,-0.000385
2308,2.308,-76,-0.00038
2309,2.309,-76,-0.00038
2310,2.31,-76,-0.00038
2311,2.311,-76,-0.00038
2312,2.312,-76,-0.00038
2313,2.313,-76,-0.00038
2314,2.314,-76,-0.00038
2315,2.315,-76,-0.00038
2316,2.316,-76,-0.00038
2317,2.317,-75,-0.000375
2318,2.318,-74,-0.00037
2319,2.319,-72,-0.00036
2320,2.32,-71,-0.000355
2321,2.321,-69,-0.000345
2322,2.322,-68,-0.00034
2323,2.323,-67,-0.000335
2324,2.324,-66,-0.00033
2325,2.325,-65,-0.000325
2326,2.326,-64,-0.00032
2327,2.327,-64,-0.00032
2328,2.328,-63,-0.000315
2329,2.329,-63,-0.000315
2330,2.33,-62,-0.00031
2331,2.331,-61,-0.000305
2332,2.332,-60,-0.0003
2333,2.333,-60,-0.0003
2334,2.334,-59,-0.000295
2335,2.335,-59,-0.000295
2336,2.336,-58,-0.00029
2337,2.337,-57,-0.000285
2338,2.338,-56,-0.00028
2339,2.339,-55,-0.000275
2340,2.34,-54,-0.00027
2341,2.341,-53,-0.000265
2342,2.342,-52,-0.00026
2343,2.343,-51,-0.000255
2344,2.344,-50,-0.00025
2345,2.345,-49,-0.000245
2346,2.346,-48,-0.00024
2347,2.347,-47,-0.000235
2348,2.348,-46,-0.00023
2349,2.349,-44,-0.00022
2350,2.35,-43,-0.000215
2351,2.351,-42,-0.00021
2352,2.352,-41,-0.000205
2353,2.353,-40,-0.0002
2354,2.354,-39,-0.000195
2355,2.355,-38,-0.00019
2356,2.356,-37,-0.000185
2357,2.357,-36,-0.00018
2358,2.358,-35,-0.000175
2359,2.359,-34,-0.00017
2360,2.36,-33,-0.000165
2361,2.361,-31,-0.000155
2362,2.362,-30,-0.00015
2363,2.363,-28,-0.00014
2364,2.364,-27,-0.000135
2365,2.365,-26,-0.00013
2366,2.366,-25,-0.000125
2367,2.367,-25,-0.000125
2368,2.368,-24,-0.00012
2369,2.369,-23,-0.000115
2370,2.37,-22,-0.00011
2371,2.371,-20,-0.0001
2372,2.372,-19,-9.5e-05
2373,2.373,-17,-8.5e-05
2374,2.374,-16,-8e-05
2375,2.375,-15,-7.5e-05
2376,2.376,-14,-7e-05
2377,2.377,-13,-6.5e-05
2378,2.378,-12,-6e-05
2379,2.379,-12,-6e-05
2380,2.38,-11,-5.5e-05
2381,2.381,-10,-5e-05
2382,2.382,-8,-4e-05
2383,2.383,-6,-3e-05
2384,2.384,-4,-2e-05
2385,2.385,-4,-2e-05
2386,2.386,-4,-2e-05
2387,2.387,-4,-2e-05
2388,2.388,-4,-2e-05
2389,2.389,-5,-2.5e-05
2390,2.39,-5,-2.5e-05
2391,2.391,-5,-2.5e-05
2392,2.392,-5,-2.5e-05
2393,2.393,-6,-3e-05
2394,2.394,-6,-3e-05
2395,2.395,-6,-3e-05
2396,2.396,-6,-3e-05
2397,2.397,-6,-3e-05
2398,2.398,-5,-2.5e-05
2399,2.399,-5,-2.5e-05
2400,2.4,-4,-2e-05
2401,2.401,-5,-2.5e-05
2402,2.402,-7,-3.5e-05
2403,2.403,-8,-4e-05
2404,2.404,-9,-4.5e-05
2405,2.405,-9,-4.5e-05
2406,2.406,-9,-4.5e-05
2407,2.407,-9,-4.5e-05
2408,2.408,-9,-4.5e-05
2409,2.409,-10,-5e-05
2410,2.41,-11,-5.5e-05
2411,2.411,-12,-6e-05
2412,2.412,-13,-6.5e-05
2413,2.413,-14,-7e-05
2414,2.414,-14,-7e-05
2415,2.415,-14,-7e-05
2416,2.416,-14,-7e-05
2417,2.417,-15,-7.5e-05
2418,2.418,-16,-8e-05
2419,2.419,-17,-8.5e-05
2420,2.42,-18,-9e-05
2421,2.421,-18,-9e-05
2422,2.422,-18,-9e-05
2423,2.423,-18,-9e-05
2424,2.424,-17,-8.5e-05
2425,2.425,-18,-9e-05
2426,2.426,-19,-9.5e-05
2427,2.427,-20,-0.0001
2428,2.428,-21,-0.000105
2429,2.429,-21,-0.000105
2430,2.43,-20,-0.0001
2431,2.431,-20,-0.0001
2432,2.432,-19,-9.5e-05
2433,2.433,-21,-0.000105
2434,2.434,-23,-0.000115
2435,2.435,-24,-0.00012
2436,2.436,-26,-0.00013
2437,2.437,-27,-0.000135
2438,2.438,-27,-0.000135
2439,2.439,-27,-0.000135
2440,2.44,-27,-0.000135
2441,2.441,-27,-0.000135
2442,2.442,-26,-0.00013
2443,2.443,-25,-0.000125
2444,2.444,-24,-0.00012
2445,2.445,-26,-0.00013
2446,2.446,-27,-0.000135
2447,2.447,-29,-0.000145
2448,2.448,-30,-0.00015
2449,2.449,-30,-0.00015
2450,2.45,-29,-0.000145
2451,2.451,-28,-0.00014
2452,2.452,-27,-0.000135
2453,2.453,-27,-0.000135
2454,2.454,-26,-0.00013
2455,2.455,-25,-0.000125
2456,2.456,-24,-0.00012
2457,2.457,-25,-0.000125
2458,2.458,-25,-0.000125
2459,2.459,-25,-0.000125
2460,2.46,-25,-0.000125
2461,2.461,-26,-0.00013
2462,2.462,-27,-0.000135
2463,2.463,-28,-0.00014
2464,2.464,-28,-0.00014
2465,2.465,-27,-0.000135
2466,2.466,-26,-0.00013
2467,2.467,-25,-0.000125
2468,2.468,-24,-0.00012
2469,2.469,-24,-0.00012
2470,2.47,-25,-0.000125
2471,2.471,-26,-0.00013
2472,2.472,-27,-0.000135
2473,2.473,-28,-0.00014
2474,2.474,-28,-0.00014
2475,2.475,-29,-0.000145
2476,2.476,-29,-0.000145
2477,2.477,-29,-0.000145
2478,2.478,-28,-0.00014
2479,2.479,-28,-0.00014
2480,2.48,-27,-0.000135
2481,2.481,-27,-0.000135
2482,2.482,-27,-0.000135
2483,2.483,-27,-0.000135
2484,2.484,-26,-0.00013
2485,2.485,-27,-0.000135
2486,2.486,-27,-0.000135
2487,2.487,-28,-0.00014
2488,2.488,-28,-0.00014
2489,2.489,-28,-0.00014
2490,2.49,-28,-0.00014
2491,2.491,-28,-0.00014
2492,2.492,-27,-0.000135
2493,2.493,-28,-0.00014
2494,2.494,-28,-0.00014
2495,2.495,-28,-0.00014
2496,2.496,-28,-0.00014
2497,2.497,-28,-0.00014
2498,2.498,-28,-0.00014
2499,2.499,-28,-0.00014
2500,2.5,-28,-0.00014
2501,2.501,-28,-0.00014
2502,2.502,-28,-0.00014
2503,2.503,-28,-0.00014
2504,2.504,-28,-0.00014
2505,2.505,-28,-0.00014
2506,2.506,-27,-0.000135
2507,2.507,-27,-0.000135
2508,2.508,-26,-0.00013
2509,2.509,-26,-0.00013
2510,2.51,-25,-0.000125
2511,2.511,-24,-0.00012
2512,2.512,-23,-0.000115
2513,2.513,-22,-0.00011
2514,2.514,-21,-0.000105
2515,2.515,-19,-9.5e-05
2516,2.516,-18,-9e-05
2517,2.517,-17,-8.5e-05
2518,2.518,-17,-8.5e-05
2519,2.519,-17,-8.5e-05
2520,2.52,-16,-8e-05
2521,2.521,-15,-7.5e-05
2522,2.522,-13,-6.5e-05
2523,2.523,-11,-5.5e-05
2524,2.524,-10,-5e-05
2525,2.525,-8,-4e-05
2526,2.526,-6,-3e-05
2527,2.527,-4,-2e-05
2528,2.528,-2,-1e-05
2529,2.529,0,0.0
2530,2.53,2,1e-05
2531,2.531,4,2e-05
2532,2.532,5,2.5e-05
2533,2.533,8,4e-05
2534,2.534,10,5e-05
2535,2.535,12,6e-05
2536,2.536,14,7e-05
2537,2.537,16,8e-05
2538,2.538,18,9e-05
2539,2.539,20,0.0001
2540,2.54,22,0.00011
2541,2.541,24,0.00012
2542,2.542,25,0.000125
2543,2.543,26,0.00013
2544,2.544,27,0.000135
2545,2.545,27,0.000135
2546,2.546,28,0.00014
2547,2.547,29,0.000145
2548,2.548,30,0.00015
2549,2.549,32,0.00016
2550,2.55,34,0.00017
2551,2.551,37,0.000185
2552,2.552,39,0.000195
2553,2.553,41,0.000205
2554,2.554,42,0.00021
2555,2.555,44,0.00022
2556,2.556,45,0.000225
2557,2.557,46,0.00023
2558,2.558,47,0.000235
2559,2.559,48,0.00024
2560,2.56,49,0.000245
2561,2.561,49,0.000245
2562,2.562,50,0.00025
2563,2.563,51,0.000255
2564,2.564,52,0.00026
2565,2.565,52,0.00026
2566,2.566,53,0.000265
2567,2.567,53,0.000265
2568,2.568,54,0.00027
2569,2.569,53,0.000265
2570,2.57,51,0.000255
2571,2.571,50,0.00025
2572,2.572,49,0.000245
2573,2.573,48,0.00024
2574,2.574,47,0.000235
2575,2.575,46,0.00023
2576,2.576,46,0.00023
2577,2.577,45,0.000225
2578,2.578,45,0.000225
2579,2.579,45,0.000225
2580,2.58,45,0.000225
2581,2.581,44,0.00022
2582,2.582,43,0.000215
2583,2.583,42,0.00021
2584,2.584,42,0.00021
2585,2.585,40,0.0002
2586,2.586,39,0.000195
2587,2.587,37,0.000185
2588,2.588,36,0.00018
2589,2.589,34,0.00017
2590,2.59,33,0.000165
2591,2.591,31,0.000155
2592,2.592,30,0.00015
2593,2.593,28,0.00014
2594,2.594,26,0.00013
2595,2.595,25,0.000125
2596,2.596,23,0.000115
2597,2.597,21,0.000105
2598,2.598,18,9e-05
2599,2.599,16,8e-05
2600,2.6,14,7e-05
2601,2.601,11,5.5e-05
2602,2.602,9,4.5e-05
2603,2.603,6,3e-05
2604,2.604,4,2e-05
2605,2.605,3,1.5e-05
2606,2.606,2,1e-05
2607,2.607,1,5e-06
2608,2.608,0,0.0
2609,2.609,-1,-5e-06
2610,2.61,-2,-1e-05
2611,2.611,-3,-1.5e-05
2612,2.612,-3,-1.5e-05
2613,2.613,-6,-3e-05
2614,2.614,-9,-4.5e-05
2615,2.615,-13,-6.5e-05
2616,2.616,-16,-8e-05
2617,2.617,-17,-8.5e-05
2618,2.618,-17,-8.5e-05
2619,2.619,-18,-9e-05
2620,2.62,-18,-9e-05
2621,2.621,-19,-9.5e-05
2622,2.622,-20,-0.0001
2623,2.623,-21,-0.000105
2624,2.624,-21,-0.000105
2625,2.625,-22,-0.00011
2626,2.626,-22,-0.00011
2627,2.627,-22,-0.00011
2628,2.628,-22,-0.00011
2629,2.629,-23,-0.000115
2630,2.63,-23,-0.000115
2631,2.631,-24,-0.00012
2632,2.632,-24,-0.00012
2633,2.633,-24,-0.00012
2634,2.634,-23,-0.000115
2635,2.635,-23,-0.000115
2636,2.636,-22,-0.00011
2637,2.637,-22,-0.00011
2638,2.638,-22,-0.00011
2639,2.639,-22,-0.00011
2640,2.64,-22,-0.00011
2641,2.641,-23,-0.000115
2642,2.642,-23,-0.000115
2643,2.643,-23,-0.000115
2644,2.644,-23,-0.000115
2645,2.645,-23,-0.000115
2646,2.646,-22,-0.00011
2647,2.647,-22,-0.00011
2648,2.648,-21,-0.000105
2649,2.649,-21,-0.000105
2650,2.65,-21,-0.000105
2651,2.651,-21,-0.000105
2652,2.652,-20,-0.0001
2653,2.653,-20,-0.0001
2654,2.654,-20,-0.0001
2655,2.655,-20,-0.0001
2656,2.656,-20,-0.0001
2657,2.657,-20,-0.0001
2658,2.658,-20,-0.0001
2659,2.659,-20,-0.0001
2660,2.66,-19,-9.5e-05
2661,2.661,-20,-0.0001
2662,2.662,-20,-0.0001
2663,2.663,-21,-0.000105
2664,2.664,-21,-0.000105
2665,2.665,-22,-0.00011
2666,2.666,-23,-0.000115
2667,2.667,-24,-0.00012
2668,2.668,-24,-0.00012
2669,2.669,-24,-0.00012
2670,2.67,-24,-0.00012
2671,2.671,-24,-0.00012
2672,2.672,-23,-0.000115
2673,2.673,-23,-0.000115
2674,2.674,-22,-0.00011
2675,2.675,-21,-0.000105
2676,2.676,-20,-0.0001
2677,2.677,-21,-0.000105
2678,2.678,-21,-0.000105
2679,2.679,-22,-0.00011
2680,2.68,-22,-0.00011
2681,2.681,-22,-0.00011
2682,2.682,-22,-0.00011
2683,2.683,-22,-0.00011
2684,2.684,-22,-0.00011
2685,2.685,-23,-0.000115
2686,2.686,-24,-0.00012
2687,2.687,-25,-0.000125
2688,2.688,-26,-0.00013
2689,2.689,-26,-0.00013
2690,2.69,-25,-0.000125
2691,2.691,-25,-0.000125
2692,2.692,-24,-0.00012
2693,2.693,-22,-0.00011
2694,2.694,-19,-9.5e-05
2695,2.695,-16,-8e-05
2696,2.696,-14,-7e-05
2697,2.697,-10,-5e-05
2698,2.698,-6,-3e-05
2699,2.699,-2,-1e-05
2700,2.7,2,1e-05
2701,2.701,10,5e-05
2702,2.702,18,9e-05
2703,2.703,26,0.00013
2704,2.704,34,0.00017
2705,2.705,44,0.00022
2706,2.706,54,0.00027
2707,2.707,65,0.000325
2708,2.708,75,0.000375
2709,2.709,84,0.00042
2710,2.71,92,0.00046
2711,2.711,100,0.0005
2712,2.712,108,0.00054
2713,2.713,117,0.000585
2714,2.714,127,0.000635
2715,2.715,137,0.000685
2716,2.716,146,0.00073
2717,2.717,156,0.00078
2718,2.718,166,0.00083
2719,2.719,176,0.00088
2720,2.72,186,0.00093
2721,2.721,195,0.000975
2722,2.722,203,0.001015
2723,2.723,212,0.00106
2724,2.724,220,0.0011
2725,2.725,230,0.00115
2726,2.726,240,0.0012
2727,2.727,250,0.00125
2728,2.728,260,0.0013
2729,2.729,268,0.00134
2730,2.73,275,0.001375
2731,2.731,282,0.00141
2732,2.732,290,0.00145
2733,2.733,297,0.001485
2734,2.734,305,0.001525
2735,2.735,313,0.001565
2736,2.736,321,0.001605
2737,2.737,326,0.00163
2738,2.738,331,0.001655
2739,2.739,336,0.00168
2740,2.74,341,0.001705
2741,2.741,337,0.001685
2742,2.742,331,0.001655
2743,2.743,325,0.001625
2744,2.744,319,0.001595
2745,2.745,304,0.00152
2746,2.746,286,0.00143
2747,2.747,269,0.001345
2748,2.748,251,0.001255
2749,2.749,237,0.001185
2750,2.75,224,0.00112
2751,2.751,211,0.001055
2752,2.752,197,0.000985
2753,2.753,193,0.000965
2754,2.754,190,0.00095
2755,2.755,186,0.00093
2756,2.756,183,0.000915
2757,2.757,172,0.00086
2758,2.758,160,0.0008
2759,2.759,148,0.00074
2760,2.76,135,0.000675
2761,2.761,115,0.000575
2762,2.762,93,0.000465
2763,2.763,71,0.000355
2764,2.764,50,0.00025
2765,2.765,30,0.00015
2766,2.766,11,5.5e-05
2767,2.767,-8,-4e-05
2768,2.768,-28,-0.00014
2769,2.769,-47,-0.000235
2770,2.77,-65,-0.000325
2771,2.771,-84,-0.00042
2772,2.772,-103,-0.000515
2773,2.773,-113,-0.000565
2774,2.774,-122,-0.00061
2775,2.775,-131,-0.000655
2776,2.776,-140,-0.0007
2777,2.777,-142,-0.00071
2778,2.778,-143,-0.000715
2779,2.779,-144,-0.00072
2780,2.78,-144,-0.00072
2781,2.781,-143,-0.000715
2782,2.782,-142,-0.00071
2783,2.783,-140,-0.0007
2784,2.784,-139,-0.000695
2785,2.785,-136,-0.00068
2786,2.786,-134,-0.00067
2787,2.787,-131,-0.000655
2788,2.788,-129,-0.000645
2789,2.789,-127,-0.000635
2790,2.79,-125,-0.000625
2791,2.791,-123,-0.000615
2792,2.792,-121,-0.000605
2793,2.793,-119,-0.000595
2794,2.794,-118,-0.00059
2795,2.795,-117,-0.000585
2796,2.796,-116,-0.00058
2797,2.797,-113,-0.000565
2798,2.798,-110,-0.00055
2799,2.799,-107,-0.000535
2800,2.8,-105,-0.000525
2801,2.801,-103,-0.000515
2802,2.802,-102,-0.00051
2803,2.803,-100,-0.0005
2804,2.804,-99,-0.000495
2805,2.805,-97,-0.000485
2806,2.806,-95,-0.000475
2807,2.807,-93,-0.000465
2808,2.808,-92,-0.00046
2809,2.809,-90,-0.00045
2810,2.81,-88,-0.00044
2811,2.811,-86,-0.00043
2812,2.812,-84,-0.00042
2813,2.813,-83,-0.000415
2814,2.814,-83,-0.000415
2815,2.815,-83,-0.000415
2816,2.816,-82,-0.00041
2817,2.817,-81,-0.000405
2818,2.818,-80,-0.0004
2819,2.819,-79,-0.000395
2820,2.82,-78,-0.00039
2821,2.821,-75,-0.000375
2822,2.822,-73,-0.000365
2823,2.823,-70,-0.00035
2824,2.824,-68,-0.00034
2825,2.825,-66,-0.00033
2826,2.826,-64,-0.00032
2827,2.827,-62,-0.00031
2828,2.828,-61,-0.000305
2829,2.829,-60,-0.0003
2830,2.83,-59,-0.000295
2831,2.831,-58,-0.00029
2832,2.832,-57,-0.000285
2833,2.833,-56,-0.00028
2834,2.834,-56,-0.00028
2835,2.835,-56,-0.00028
2836,2.836,-56,-0.00028
2837,2.837,-56,-0.00028
2838,2.838,-55,-0.000275
2839,2.839,-55,-0.000275
2840,2.84,-54,-0.00027
2841,2.841,-53,-0.000265
2842,2.842,-52,-0.00026
2843,2.843,-51,-0.000255
2844,2.844,-50,-0.00025
2845,2.845,-49,-0.000245
2846,2.846,-49,-0.000245
2847,2.847,-49,-0.000245
2848,2.848,-49,-0.000245
2849,2.849,-50,-0.00025
2850,2.85,-50,-0.00025
2851,2.851,-50,-0.00025
2852,2.852,-50,-0.00025
2853,2.853,-49,-0.000245
2854,2.854,-48,-0.00024
2855,2.855,-47,-0.000235
2856,2.856,-46,-0.00023
2857,2.857,-45,-0.000225
2858,2.858,-44,-0.00022
2859,2.859,-44,-0.00022
2860,2.86,-43,-0.000215
2861,2.861,-44,-0.00022
2862,2.862,-44,-0.00022
2863,2.863,-44,-0.00022
2864,2.864,-44,-0.00022
2865,2.865,-44,-0.00022
2866,2.866,-43,-0.000215
2867,2.867,-43,-0.000215
2868,2.868,-42,-0.00021
2869,2.869,-42,-0.00021
2870,2.87,-42,-0.00021
2871,2.871,-42,-0.00021
2872,2.872,-41,-0.000205
2873,2.873,-41,-0.000205
2874,2.874,-40,-0.0002
2875,2.875,-39,-0.000195
2876,2.876,-38,-0.00019
2877,2.877,-38,-0.00019
2878,2.878,-39,-0.000195
2879,2.879,-40,-0.0002
2880,2.88,-41,-0.000205
2881,2.881,-41,-0.000205
2882,2.882,-41,-0.000205
2883,2.883,-41,-0.000205
2884,2.884,-40,-0.0002
2885,2.885,-40,-0.0002
2886,2.886,-39,-0.000195
2887,2.887,-38,-0.00019
2888,2.888,-37,-0.000185
2889,2.889,-38,-0.00019
2890,2.89,-39,-0.000195
2891,2.891,-40,-0.0002
2892,2.892,-40,-0.0002
2893,2.893,-40,-0.0002
2894,2.894,-39,-0.000195
2895,2.895,-39,-0.000195
2896,2.896,-38,-0.00019
2897,2.897,-38,-0.00019
2898,2.898,-37,-0.000185
2899,2.899,-37,-0.000185
2900,2.9,-36,-0.00018
2901,2.901,-36,-0.00018
2902,2.902,-36,-0.00018
2903,2.903,-36,-0.00018
2904,2.904,-36,-0.00018
2905,2.905,-36,-0.00018
2906,2.906,-35,-0.000175
2907,2.907,-34,-0.00017
2908,2.908,-33,-0.000165
2909,2.909,-33,-0.000165
2910,2.91,-32,-0.00016
2911,2.911,-32,-0.00016
2912,2.912,-31,-0.000155
2913,2.913,-31,-0.000155
2914,2.914,-30,-0.00015
2915,2.915,-29,-0.000145
2916,2.916,-28,-0.00014
2917,2.917,-26,-0.00013
2918,2.918,-25,-0.000125
2919,2.919,-24,-0.00012
2920,2.92,-23,-0.000115
2921,2.921,-22,-0.00011
2922,2.922,-21,-0.000105
2923,2.923,-20,-0.0001
2924,2.924,-19,-9.5e-05
2925,2.925,-18,-9e-05
2926,2.926,-17,-8.5e-05
2927,2.927,-16,-8e-05
2928,2.928,-15,-7.5e-05
2929,2.929,-15,-7.5e-05
2930,2.93,-14,-7e-05
2931,2.931,-14,-7e-05
2932,2.932,-13,-6.5e-05
2933,2.933,-13,-6.5e-05
2934,2.934,-12,-6e-05
2935,2.935,-12,-6e-05
2936,2.936,-11,-5.5e-05
2937,2.937,-9,-4.5e-05
2938,2.938,-7,-3.5e-05
2939,2.939,-5,-2.5e-05
2940,2.94,-3,-1.5e-05
2941,2.941,-1,-5e-06
2942,2.942,1,5e-06
2943,2.943,3,1.5e-05
2944,2.944,4,2e-05
2945,2.945,5,2.5e-05
2946,2.946,6,3e-05
2947,2.947,7,3.5e-05
2948,2.948,8,4e-05
2949,2.949,9,4.5e-05
2950,2.95,10,5e-05
2951,2.951,11,5.5e-05
2952,2.952,12,6e-05
2953,2.953,14,7e-05
2954,2.954,15,7.5e-05
2955,2.955,17,8.5e-05
2956,2.956,18,9e-05
2957,2.957,20,0.0001
2958,2.958,21,0.000105
2959,2.959,23,0.000115
2960,2.96,24,0.00012
2961,2.961,25,0.000125
2962,2.962,26,0.00013
2963,2.963,26,0.00013
2964,2.964,27,0.000135
2965,2.965,27,0.000135
2966,2.966,28,0.00014
2967,2.967,28,0.00014
2968,2.968,29,0.000145
2969,2.969,29,0.000145
2970,2.97,30,0.00015
2971,2.971,31,0.000155
2972,2.972,32,0.00016
2973,2.973,32,0.00016
2974,2.974,33,0.000165
2975,2.975,34,0.00017
2976,2.976,35,0.000175
2977,2.977,35,0.000175
2978,2.978,35,0.000175
2979,2.979,35,0.000175
2980,2.98,35,0.000175
2981,2.981,35,0.000175
2982,2.982,36,0.00018
2983,2.983,36,0.00018
2984,2.984,37,0.000185
2985,2.985,36,0.00018
2986,2.986,35,0.000175
2987,2.987,35,0.000175
2988,2.988,34,0.00017
2989,2.989,34,0.00017
2990,2.99,35,0.000175
2991,2.991,36,0.00018
2992,2.992,37,0.000185
2993,2.993,36,0.00018
2994,2.994,36,0.00018
2995,2.995,36,0.00018
2996,2.996,36,0.00018
2997,2.997,35,0.000175
2998,2.998,34,0.00017
2999,2.999,34,0.00017
3000,3.0,33,0.000165
3001,3.001,32,0.00016
3002,3.002,31,0.000155
3003,3.003,31,0.000155
3004,3.004,30,0.00015
3005,3.005,29,0.000145
3006,3.006,28,0.00014
3007,3.007,27,0.000135
3008,3.008,26,0.00013
3009,3.009,26,0.00013
3010,3.01,26,0.00013
3011,3.011,26,0.00013
3012,3.012,27,0.000135
3013,3.013,26,0.00013
3014,3.014,26,0.00013
3015,3.015,25,0.000125
3016,3.016,25,0.000125
3017,3.017,24,0.00012
3018,3.018,23,0.000115
3019,3.019,23,0.000115
3020,3.02,22,0.00011
3021,3.021,22,0.00011
3022,3.022,22,0.00011
3023,3.023,22,0.00011
3024,3.024,23,0.000115
3025,3.025,23,0.000115
3026,3.026,23,0.000115
3027,3.027,23,0.000115
3028,3.028,23,0.000115
3029,3.029,23,0.000115
3030,3.03,23,0.000115
3031,3.031,23,0.000115
3032,3.032,23,0.000115
3033,3.033,22,0.00011
3034,3.034,21,0.000105
3035,3.035,20,0.0001
3036,3.036,19,9.5e-05
3037,3.037,18,9e-05
3038,3.038,18,9e-05
3039,3.039,18,9e-05
3040,3.04,18,9e-05
3041,3.041,17,8.5e-05
3042,3.042,17,8.5e-05
3043,3.043,17,8.5e-05
3044,3.044,17,8.5e-05
3045,3.045,17,8.5e-05
3046,3.046,17,8.5e-05
3047,3.047,17,8.5e-05
3048,3.048,18,9e-05
3049,3.049,17,8.5e-05
3050,3.05,17,8.5e-05
3051,3.051,17,8.5e-05
3052,3.052,17,8.5e-05
3053,3.053,16,8e-05
3054,3.054,14,7e-05
3055,3.055,13,6.5e-05
3056,3.056,12,6e-05
3057,3.057,12,6e-05
3058,3.058,13,6.5e-05
3059,3.059,14,7e-05
3060,3.06,15,7.5e-05
3061,3.061,14,7e-05
3062,3.062,14,7e-05
3063,3.063,14,7e-05
3064,3.064,14,7e-05
3065,3.065,14,7e-05
3066,3.066,15,7.5e-05
3067,3.067,15,7.5e-05
3068,3.068,16,8e-05
3069,3.069,15,7.5e-05
3070,3.07,14,7e-05
3071,3.071,14,7e-05
3072,3.072,13,6.5e-05
3073,3.073,13,6.5e-05
3074,3.074,14,7e-05
3075,3.075,15,7.5e-05
3076,3.076,16,8e-05
3077,3.077,16,8e-05
3078,3.078,16,8e-05
3079,3.079,16,8e-05
3080,3.08,16,8e-05
3081,3.081,16,8e-05
3082,3.082,16,8e-05
3083,3.083,16,8e-05
3084,3.084,17,8.5e-05
3085,3.085,16,8e-05
3086,3.086,16,8e-05
3087,3.087,16,8e-05
3088,3.088,16,8e-05
3089,3.089,17,8.5e-05
3090,3.09,19,9.5e-05
3091,3.091,21,0.000105
3092,3.092,22,0.00011
3093,3.093,23,0.000115
3094,3.094,24,0.00012
3095,3.095,25,0.000125
3096,3.096,26,0.00013
3097,3.097,26,0.00013
3098,3.098,27,0.000135
3099,3.099,27,0.000135
3100,3.1,28,0.00014
3101,3.101,30,0.00015
3102,3.102,33,0.000165
3103,3.103,35,0.000175
3104,3.104,38,0.00019
3105,3.105,40,0.0002
3106,3.106,41,0.000205
3107,3.107,42,0.00021
3108,3.108,43,0.000215
3109,3.109,45,0.000225
3110,3.11,47,0.000235
3111,3.111,49,0.000245
3112,3.112,51,0.000255
3113,3.113,53,0.000265
3114,3.114,55,0.000275
3115,3.115,57,0.000285
3116,3.116,58,0.00029
3117,3.117,61,0.000305
3118,3.118,63,0.000315
3119,3.119,66,0.00033
3120,3.12,68,0.00034
3121,3.121,68,0.00034
3122,3.122,68,0.00034
3123,3.123,68,0.00034
3124,3.124,68,0.00034
3125,3.125,70,0.00035
3126,3.126,72,0.00036
3127,3.127,74,0.00037
3128,3.128,76,0.00038
3129,3.129,77,0.000385
3130,3.13,78,0.00039
3131,3.131,78,0.00039
3132,3.132,79,0.000395
3133,3.133,80,0.0004
3134,3.134,82,0.00041
3135,3.135,84,0.00042
3136,3.136,86,0.00043
3137,3.137,87,0.000435
3138,3.138,88,0.00044
3139,3.139,89,0.000445
3140,3.14,90,0.00045
3141,3.141,90,0.00045
3142,3.142,90,0.00045
3143,3.143,90,0.00045
3144,3.144,90,0.00045
3145,3.145,90,0.00045
3146,3.146,90,0.00045
3147,3.147,90,0.00045
3148,3.148,91,0.000455
3149,3.149,91,0.000455
3150,3.15,91,0.000455
3151,3.151,91,0.000455
3152,3.152,91,0.000455
3153,3.153,90,0.00045
3154,3.154,89,0.000445
3155,3.155,89,0.000445
3156,3.156,88,0.00044
3157,3.157,88,0.00044
3158,3.158,88,0.00044
3159,3.159,88,0.00044
3160,3.16,88,0.00044
3161,3.161,87,0.000435
3162,3.162,86,0.00043
3163,3.163,86,0.00043
3164,3.164,85,0.000425
3165,3.165,83,0.000415
3166,3.166,81,0.000405
3167,3.167,79,0.000395
3168,3.168,77,0.000385
3169,3.169,75,0.000375
3170,3.17,72,0.00036
3171,3.171,70,0.00035
3172,3.172,68,0.00034
3173,3.173,67,0.000335
3174,3.174,65,0.000325
3175,3.175,64,0.00032
3176,3.176,63,0.000315
3177,3.177,61,0.000305
3178,3.178,59,0.000295
3179,3.179,57,0.000285
3180,3.18,55,0.000275
3181,3.181,54,0.00027
3182,3.182,52,0.00026
3183,3.183,51,0.000255
3184,3.184,50,0.00025
3185,3.185,50,0.00025
3186,3.186,50,0.00025
3187,3.187,50,0.00025
3188,3.188,51,0.000255
3189,3.189,48,0.00024
3190,3.19,45,0.000225
3191,3.191,42,0.00021
3192,3.192,39,0.000195
3193,3.193,38,0.00019
3194,3.194,36,0.00018
3195,3.195,35,0.000175
3196,3.196,34,0.00017
3197,3.197,33,0.000165
3198,3.198,33,0.000165
3199,3.199,32,0.00016
3200,3.2,32,0.00016
3201,3.201,31,0.000155
3202,3.202,31,0.000155
3203,3.203,31,0.000155
3204,3.204,31,0.000155
3205,3.205,30,0.00015
3206,3.206,30,0.00015
3207,3.207,29,0.000145
3208,3.208,29,0.000145
3209,3.209,29,0.000145
3210,3.21,30,0.00015
3211,3.211,31,0.000155
3212,3.212,32,0.00016
3213,3.213,32,0.00016
3214,3.214,32,0.00016
3215,3.215,32,0.00016
3216,3.216,33,0.000165
3217,3.217,33,0.000165
3218,3.218,33,0.000165
3219,3.219,33,0.000165
3220,3.22,34,0.00017
3221,3.221,34,0.00017
3222,3.222,35,0.000175
3223,3.223,36,0.00018
3224,3.224,37,0.000185
3225,3.225,36,0.00018
3226,3.226,36,0.00018
3227,3.227,36,0.00018
3228,3.228,36,0.00018
3229,3.229,35,0.000175
3230,3.23,35,0.000175
3231,3.231,35,0.000175
3232,3.232,35,0.000175
3233,3.233,34,0.00017
3234,3.234,33,0.000165
3235,3.235,32,0.00016
3236,3.236,31,0.000155
3237,3.237,32,0.00016
3238,3.238,33,0.000165
3239,3.239,35,0.000175
3240,3.24,36,0.00018
3241,3.241,36,0.00018
3242,3.242,35,0.000175
3243,3.243,35,0.000175
3244,3.244,34,0.00017
3245,3.245,33,0.000165
3246,3.246,33,0.000165
3247,3.247,33,0.000165
3248,3.248,33,0.000165
3249,3.249,33,0.000165
3250,3.25,34,0.00017
3251,3.251,34,0.00017
3252,3.252,35,0.000175
3253,3.253,34,0.00017
3254,3.254,34,0.00017
3255,3.255,33,0.000165
3256,3.256,33,0.000165
3257,3.257,34,0.00017
3258,3.258,36,0.00018
3259,3.259,38,0.00019
3260,3.26,39,0.000195
3261,3.261,39,0.000195
3262,3.262,38,0.00019
3263,3.263,37,0.000185
3264,3.264,36,0.00018
3265,3.265,35,0.000175
3266,3.266,34,0.00017
3267,3.267,33,0.000165
3268,3.268,32,0.00016
3269,3.269,33,0.000165
3270,3.27,34,0.00017
3271,3.271,35,0.000175
3272,3.272,36,0.00018
3273,3.273,39,0.000195
3274,3.274,41,0.000205
3275,3.275,43,0.000215
3276,3.276,45,0.000225
3277,3.277,50,0.00025
3278,3.278,54,0.00027
3279,3.279,59,0.000295
3280,3.28,64,0.00032
3281,3.281,72,0.00036
3282,3.282,81,0.000405
3283,3.283,89,0.000445
3284,3.284,98,0.00049
3285,3.285,107,0.000535
3286,3.286,117,0.000585
3287,3.287,126,0.00063
3288,3.288,135,0.000675
3289,3.289,144,0.00072
3290,3.29,153,0.000765
3291,3.291,161,0.000805
3292,3.292,170,0.00085
3293,3.293,179,0.000895
3294,3.294,188,0.00094
3295,3.295,197,0.000985
3296,3.296,206,0.00103
3297,3.297,216,0.00108
3298,3.298,226,0.00113
3299,3.299,237,0.001185
3300,3.3,247,0.001235
3301,3.301,256,0.00128
3302,3.302,265,0.001325
3303,3.303,273,0.001365
3304,3.304,282,0.00141
3305,3.305,290,0.00145
3306,3.306,298,0.00149
3307,3.307,306,0.00153
3308,3.308,314,0.00157
3309,3.309,322,0.00161
3310,3.31,329,0.001645
3311,3.311,336,0.00168
3312,3.312,343,0.001715
3313,3.313,350,0.00175
3314,3.314,356,0.00178
3315,3.315,362,0.00181
3316,3.316,369,0.001845
3317,3.317,368,0.00184
3318,3.318,366,0.00183
3319,3.319,363,0.001815
3320,3.32,361,0.001805
3321,3.321,350,0.00175
3322,3.322,337,0.001685
3323,3.323,325,0.001625
3324,3.324,312,0.00156
3325,3.325,297,0.001485
3326,3.326,283,0.001415
3327,3.327,268,0.00134
3328,3.328,253,0.001265
3329,3.329,248,0.00124
3330,3.33,245,0.001225
3331,3.331,242,0.00121
3332,3.332,239,0.001195
3333,3.333,230,0.00115
3334,3.334,220,0.0011
3335,3.335,210,0.00105
3336,3.336,200,0.001
3337,3.337,183,0.000915
3338,3.338,165,0.000825
3339,3.339,147,0.000735
3340,3.34,129,0.000645
3341,3.341,111,0.000555
3342,3.342,94,0.00047
3343,3.343,76,0.00038
3344,3.344,59,0.000295
3345,3.345,39,0.000195
3346,3.346,19,9.5e-05
3347,3.347,0,0.0
3348,3.348,-20,-0.0001
3349,3.349,-33,-0.000165
3350,3.35,-44,-0.00022
3351,3.351,-56,-0.00028
3352,3.352,-67,-0.000335
3353,3.353,-70,-0.00035
3354,3.354,-71,-0.000355
3355,3.355,-72,-0.00036
3356,3.356,-73,-0.000365
3357,3.357,-72,-0.00036
3358,3.358,-71,-0.000355
3359,3.359,-69,-0.000345
3360,3.36,-68,-0.00034
3361,3.361,-67,-0.000335
3362,3.362,-66,-0.00033
3363,3.363,-65,-0.000325
3364,3.364,-64,-0.00032
3365,3.365,-61,-0.000305
3366,3.366,-59,-0.000295
3367,3.367,-57,-0.000285
3368,3.368,-55,-0.000275
3369,3.369,-52,-0.00026
3370,3.37,-50,-0.00025
3371,3.371,-48,-0.00024
3372,3.372,-46,-0.00023
3373,3.373,-43,-0.000215
3374,3.374,-41,-0.000205
3375,3.375,-39,-0.000195
3376,3.376,-37,-0.000185
3377,3.377,-34,-0.00017
3378,3.378,-32,-0.00016
3379,3.379,-30,-0.00015
3380,3.38,-28,-0.00014
3381,3.381,-25,-0.000125
3382,3.382,-23,-0.000115
3383,3.383,-20,-0.0001
3384,3.384,-18,-9e-05
3385,3.385,-18,-9e-05
3386,3.386,-19,-9.5e-05
3387,3.387,-19,-9.5e-05
3388,3.388,-20,-0.0001
3389,3.389,-19,-9.5e-05
3390,3.39,-17,-8.5e-05
3391,3.391,-15,-7.5e-05
3392,3.392,-14,-7e-05
3393,3.393,-12,-6e-05
3394,3.394,-10,-5e-05
3395,3.395,-8,-4e-05
3396,3.396,-7,-3.5e-05
3397,3.397,-5,-2.5e-05
3398,3.398,-4,-2e-05
3399,3.399,-3,-1.5e-05
3400,3.4,-2,-1e-05
3401,3.401,0,0.0
3402,3.402,2,1e-05
3403,3.403,4,2e-05
3404,3.404,6,3e-05
3405,3.405,7,3.5e-05
3406,3.406,8,4e-05
3407,3.407,9,4.5e-05
3408,3.408,10,5e-05
3409,3.409,11,5.5e-05
3410,3.41,12,6e-05
3411,3.411,14,7e-05
3412,3.412,15,7.5e-05
3413,3.413,16,8e-05
3414,3.414,16,8e-05
3415,3.415,16,8e-05
3416,3.416,16,8e-05
3417,3.417,16,8e-05
3418,3.418,16,8e-05
3419,3.419,16,8e-05
3420,3.42,17,8.5e-05
3421,3.421,17,8.5e-05
3422,3.422,17,8.5e-05
3423,3.423,17,8.5e-05
3424,3.424,17,8.5e-05
3425,3.425,17,8.5e-05
3426,3.426,18,9e-05
3427,3.427,18,9e-05
3428,3.428,19,9.5e-05
3429,3.429,18,9e-05
3430,3.43,18,9e-05
3431,3.431,18,9e-05
3432,3.432,18,9e-05
3433,3.433,18,9e-05
3434,3.434,18,9e-05
3435,3.435,18,9e-05
3436,3.436,19,9.5e-05
3437,3.437,19,9.5e-05
3438,3.438,19,9.5e-05
3439,3.439,19,9.5e-05
3440,3.44,20,0.0001
3441,3.441,21,0.000105
3442,3.442,22,0.00011
3443,3.443,24,0.00012
3444,3.444,25,0.000125
3445,3.445,25,0.000125
3446,3.446,24,0.00012
3447,3.447,23,0.000115
3448,3.448,22,0.00011
3449,3.449,23,0.000115
3450,3.45,24,0.00012
3451,3.451,25,0.000125
3452,3.452,26,0.00013
3453,3.453,27,0.000135
3454,3.454,27,0.000135
3455,3.455,27,0.000135
3456,3.456,28,0.00014
3457,3.457,27,0.000135
3458,3.458,27,0.000135
3459,3.459,27,0.000135
3460,3.46,27,0.000135
3461,3.461,27,0.000135
3462,3.462,28,0.00014
3463,3.463,28,0.00014
3464,3.464,29,0.000145
3465,3.465,29,0.000145
3466,3.466,29,0.000145
3467,3.467,29,0.000145
3468,3.468,29,0.000145
3469,3.469,28,0.00014
3470,3.47,28,0.00014
3471,3.471,27,0.000135
3472,3.472,27,0.000135
3473,3.473,28,0.00014
3474,3.474,29,0.000145
3475,3.475,31,0.000155
3476,3.476,32,0.00016
3477,3.477,32,0.00016
3478,3.478,32,0.00016
3479,3.479,32,0.00016
3480,3.48,32,0.00016
3481,3.481,32,0.00016
3482,3.482,33,0.000165
3483,3.483,33,0.000165
3484,3.484,34,0.00017
3485,3.485,34,0.00017
3486,3.486,35,0.000175
3487,3.487,36,0.00018
3488,3.488,37,0.000185
3489,3.489,38,0.00019
3490,3.49,39,0.000195
3491,3.491,41,0.000205
3492,3.492,42,0.00021
3493,3.493,43,0.000215
3494,3.494,44,0.00022
3495,3.495,44,0.00022
3496,3.496,45,0.000225
3497,3.497,45,0.000225
3498,3.498,46,0.00023
3499,3.499,46,0.00023
3500,3.5,47,0.000235
3501,3.501,47,0.000235
3502,3.502,48,0.00024
3503,3.503,49,0.000245
3504,3.504,50,0.00025
3505,3.505,50,0.00025
3506,3.506,51,0.000255
3507,3.507,51,0.000255
3508,3.508,52,0.00026
3509,3.509,53,0.000265
3510,3.51,54,0.00027
3511,3.511,56,0.00028
3512,3.512,57,0.000285
3513,3.513,58,0.00029
3514,3.514,59,0.000295
3515,3.515,60,0.0003
3516,3.516,61,0.000305
3517,3.517,62,0.00031
3518,3.518,63,0.000315
3519,3.519,63,0.000315
3520,3.52,64,0.00032
3521,3.521,65,0.000325
3522,3.522,67,0.000335
3523,3.523,69,0.000345
3524,3.524,70,0.00035
3525,3.525,71,0.000355
3526,3.526,72,0.00036
3527,3.527,73,0.000365
3528,3.528,74,0.00037
3529,3.529,76,0.00038
3530,3.53,77,0.000385
3531,3.531,79,0.000395
3532,3.532,80,0.0004
3533,3.533,81,0.000405
3534,3.534,82,0.00041
3535,3.535,82,0.00041
3536,3.536,83,0.000415
3537,3.537,83,0.000415
3538,3.538,83,0.000415
3539,3.539,83,0.000415
3540,3.54,84,0.00042
3541,3.541,85,0.000425
3542,3.542,86,0.00043
3543,3.543,88,0.00044
3544,3.544,89,0.000445
3545,3.545,90,0.00045
3546,3.546,91,0.000455
3547,3.547,92,0.00046
3548,3.548,93,0.000465
3549,3.549,93,0.000465
3550,3.55,93,0.000465
3551,3.551,93,0.000465
3552,3.552,93,0.000465
3553,3.553,92,0.00046
3554,3.554,92,0.00046
3555,3.555,91,0.000455
3556,3.556,91,0.000455
3557,3.557,91,0.000455
3558,3.558,91,0.000455
3559,3.559,91,0.000455
3560,3.56,91,0.000455
3561,3.561,90,0.00045
3562,3.562,89,0.000445
3563,3.563,88,0.00044
3564,3.564,87,0.000435
3565,3.565,87,0.000435
3566,3.566,87,0.000435
3567,3.567,87,0.000435
3568,3.568,88,0.00044
3569,3.569,87,0.000435
3570,3.57,87,0.000435
3571,3.571,87,0.000435
3572,3.572,87,0.000435
3573,3.573,85,0.000425
3574,3.574,83,0.000415
3575,3.575,81,0.000405
3576,3.576,79,0.000395
3577,3.577,79,0.000395
3578,3.578,79,0.000395
3579,3.579,79,0.000395
3580,3.58,79,0.000395
3581,3.581,78,0.00039
3582,3.582,78,0.00039
3583,3.583,77,0.000385
3584,3.584,77,0.000385
3585,3.585,77,0.000385
3586,3.586,77,0.000385
3587,3.587,77,0.000385
3588,3.588,77,0.000385
3589,3.589,76,0.00038
3590,3.59,75,0.000375
3591,3.591,75,0.000375
3592,3.592,74,0.00037
3593,3.593,73,0.000365
3594,3.594,72,0.00036
3595,3.595,72,0.00036
3596,3.596,71,0.000355
3597,3.597,71,0.000355
3598,3.598,71,0.000355
3599,3.599,71,0.000355
3600,3.6,71,0.000355
3601,3.601,71,0.000355
3602,3.602,71,0.000355
3603,3.603,71,0.000355
3604,3.604,71,0.000355
3605,3.605,70,0.00035
3606,3.606,69,0.000345
3607,3.607,69,0.000345
3608,3.608,68,0.00034
3609,3.609,68,0.00034
3610,3.61,68,0.00034
3611,3.611,68,0.00034
3612,3.612,68,0.00034
3613,3.613,69,0.000345
3614,3.614,70,0.00035
3615,3.615,71,0.000355
3616,3.616,72,0.00036
3617,3.617,73,0.000365
3618,3.618,73,0.000365
3619,3.619,73,0.000365
3620,3.62,74,0.00037
3621,3.621,72,0.00036
3622,3.622,70,0.00035
3623,3.623,68,0.00034
3624,3.624,66,0.00033
3625,3.625,66,0.00033
3626,3.626,67,0.000335
3627,3.627,68,0.00034
3628,3.628,69,0.000345
3629,3.629,70,0.00035
3630,3.63,70,0.00035
3631,3.631,70,0.00035
3632,3.632,70,0.00035
3633,3.633,70,0.00035
3634,3.634,70,0.00035
3635,3.635,70,0.00035
3636,3.636,71,0.000355
3637,3.637,69,0.000345
3638,3.638,68,0.00034
3639,3.639,66,0.00033
3640,3.64,65,0.000325
3641,3.641,66,0.00033
3642,3.642,67,0.000335
3643,3.643,68,0.00034
3644,3.644,69,0.000345
3645,3.645,69,0.000345
3646,3.646,68,0.00034
3647,3.647,68,0.00034
3648,3.648,67,0.000335
3649,3.649,66,0.00033
3650,3.65,64,0.00032
3651,3.651,63,0.000315
3652,3.652,62,0.00031
3653,3.653,62,0.00031
3654,3.654,63,0.000315
3655,3.655,64,0.00032
3656,3.656,65,0.000325
3657,3.657,65,0.000325
3658,3.658,65,0.000325
3659,3.659,65,0.000325
3660,3.66,65,0.000325
3661,3.661,64,0.00032
3662,3.662,64,0.00032
3663,3.663,64,0.00032
3664,3.664,64,0.00032
3665,3.665,64,0.00032
3666,3.666,64,0.00032
3667,3.667,64,0.00032
3668,3.668,65,0.000325
3669,3.669,65,0.000325
3670,3.67,66,0.00033
3671,3.671,66,0.00033
3672,3.672,67,0.000335
3673,3.673,67,0.000335
3674,3.674,68,0.00034
3675,3.675,69,0.000345
3676,3.676,70,0.00035
3677,3.677,71,0.000355
3678,3.678,72,0.00036
3679,3.679,73,0.000365
3680,3.68,74,0.00037
3681,3.681,76,0.00038
3682,3.682,77,0.000385
3683,3.683,79,0.000395
3684,3.684,80,0.0004
3685,3.685,81,0.000405
3686,3.686,82,0.00041
3687,3.687,83,0.000415
3688,3.688,84,0.00042
3689,3.689,86,0.00043
3690,3.69,87,0.000435
3691,3.691,89,0.000445
3692,3.692,90,0.00045
3693,3.693,91,0.000455
3694,3.694,92,0.00046
3695,3.695,93,0.000465
3696,3.696,94,0.00047
3697,3.697,96,0.00048
3698,3.698,98,0.00049
3699,3.699,100,0.0005
3700,3.7,101,0.000505
3701,3.701,103,0.000515
3702,3.702,105,0.000525
3703,3.703,107,0.000535
3704,3.704,108,0.00054
3705,3.705,108,0.00054
3706,3.706,108,0.00054
3707,3.707,107,0.000535
3708,3.708,107,0.000535
3709,3.709,109,0.000545
3710,3.71,111,0.000555
3711,3.711,114,0.00057
3712,3.712,116,0.00058
3713,3.713,118,0.00059
3714,3.714,120,0.0006
3715,3.715,122,0.00061
3716,3.716,123,0.000615
3717,3.717,124,0.00062
3718,3.718,125,0.000625
3719,3.719,126,0.00063
3720,3.72,127,0.000635
3721,3.721,128,0.00064
3722,3.722,129,0.000645
3723,3.723,130,0.00065
3724,3.724,131,0.000655
3725,3.725,130,0.00065
3726,3.726,130,0.00065
3727,3.727,129,0.000645
3728,3.728,129,0.000645
3729,3.729,128,0.00064
3730,3.73,127,0.000635
3731,3.731,127,0.000635
3732,3.732,126,0.00063
3733,3.733,125,0.000625
3734,3.734,124,0.00062
3735,3.735,123,0.000615
3736,3.736,122,0.00061
3737,3.737,122,0.00061
3738,3.738,122,0.00061
3739,3.739,122,0.00061
3740,3.74,123,0.000615
3741,3.741,122,0.00061
3742,3.742,121,0.000605
3743,3.743,120,0.0006
3744,3.744,119,0.000595
3745,3.745,118,0.00059
3746,3.746,117,0.000585
3747,3.747,116,0.00058
3748,3.748,115,0.000575
3749,3.749,113,0.000565
3750,3.75,110,0.00055
3751,3.751,108,0.00054
3752,3.752,105,0.000525
3753,3.753,104,0.00052
3754,3.754,103,0.000515
3755,3.755,102,0.00051
3756,3.756,101,0.000505
3757,3.757,99,0.000495
3758,3.758,96,0.00048
3759,3.759,94,0.00047
3760,3.76,91,0.000455
3761,3.761,91,0.000455
3762,3.762,91,0.000455
3763,3.763,91,0.000455
3764,3.764,91,0.000455
3765,3.765,90,0.00045
3766,3.766,88,0.00044
3767,3.767,87,0.000435
3768,3.768,86,0.00043
3769,3.769,84,0.00042
3770,3.77,82,0.00041
3771,3.771,79,0.000395
3772,3.772,77,0.000385
3773,3.773,76,0.00038
3774,3.774,76,0.00038
3775,3.775,75,0.000375
3776,3.776,75,0.000375
3777,3.777,73,0.000365
3778,3.778,72,0.00036
3779,3.779,70,0.00035
3780,3.78,69,0.000345
3781,3.781,68,0.00034
3782,3.782,68,0.00034
3783,3.783,68,0.00034
3784,3.784,68,0.00034
3785,3.785,68,0.00034
3786,3.786,68,0.00034
3787,3.787,68,0.00034
3788,3.788,68,0.00034
3789,3.789,68,0.00034
3790,3.79,68,0.00034
3791,3.791,68,0.00034
3792,3.792,68,0.00034
3793,3.793,67,0.000335
3794,3.794,66,0.00033
3795,3.795,66,0.00033
3796,3.796,65,0.000325
3797,3.797,65,0.000325
3798,3.798,66,0.00033
3799,3.799,66,0.00033
3800,3.8,67,0.000335
3801,3.801,66,0.00033
3802,3.802,66,0.00033
3803,3.803,65,0.000325
3804,3.804,65,0.000325
3805,3.805,65,0.000325
3806,3.806,65,0.000325
3807,3.807,65,0.000325
3808,3.808,66,0.00033
3809,3.809,65,0.000325
3810,3.81,65,0.000325
3811,3.811,65,0.000325
3812,3.812,65,0.000325
3813,3.813,65,0.000325
3814,3.814,65,0.000325
3815,3.815,65,0.000325
3816,3.816,65,0.000325
3817,3.817,64,0.00032
3818,3.818,63,0.000315
3819,3.819,62,0.00031
3820,3.82,61,0.000305
3821,3.821,61,0.000305
3822,3.822,62,0.00031
3823,3.823,63,0.000315
3824,3.824,64,0.00032
3825,3.825,64,0.00032
3826,3.826,63,0.000315
3827,3.827,62,0.00031
3828,3.828,61,0.000305
3829,3.829,62,0.00031
3830,3.83,63,0.000315
3831,3.831,65,0.000325
3832,3.832,66,0.00033
3833,3.833,66,0.00033
3834,3.834,65,0.000325
3835,3.835,65,0.000325
3836,3.836,64,0.00032
3837,3.837,64,0.00032
3838,3.838,65,0.000325
3839,3.839,66,0.00033
3840,3.84,66,0.00033
3841,3.841,66,0.00033
3842,3.842,66,0.00033
3843,3.843,65,0.000325
3844,3.844,65,0.000325
3845,3.845,64,0.00032
3846,3.846,63,0.000315
3847,3.847,62,0.00031
3848,3.848,61,0.000305
3849,3.849,61,0.000305
3850,3.85,61,0.000305
3851,3.851,61,0.000305
3852,3.852,61,0.000305
3853,3.853,64,0.00032
3854,3.854,67,0.000335
3855,3.855,71,0.000355
3856,3.856,75,0.000375
3857,3.857,79,0.000395
3858,3.858,83,0.000415
3859,3.859,88,0.00044
3860,3.86,92,0.00046
3861,3.861,99,0.000495
3862,3.862,108,0.00054
3863,3.863,116,0.00058
3864,3.864,125,0.000625
3865,3.865,133,0.000665
3866,3.866,142,0.00071
3867,3.867,150,0.00075
3868,3.868,159,0.000795
3869,3.869,168,0.00084
3870,3.87,176,0.00088
3871,3.871,185,0.000925
3872,3.872,194,0.00097
3873,3.873,202,0.00101
3874,3.874,211,0.001055
3875,3.875,219,0.001095
3876,3.876,228,0.00114
3877,3.877,236,0.00118
3878,3.878,244,0.00122
3879,3.879,252,0.00126
3880,3.88,260,0.0013
3881,3.881,270,0.00135
3882,3.882,280,0.0014
3883,3.883,290,0.00145
3884,3.884,300,0.0015
3885,3.885,307,0.001535
3886,3.886,313,0.001565
3887,3.887,320,0.0016
3888,3.888,326,0.00163
3889,3.889,333,0.001665
3890,3.89,339,0.001695
3891,3.891,346,0.00173
3892,3.892,352,0.00176
3893,3.893,358,0.00179
3894,3.894,363,0.001815
3895,3.895,368,0.00184
3896,3.896,374,0.00187
3897,3.897,375,0.001875
3898,3.898,376,0.00188
3899,3.899,376,0.00188
3900,3.9,377,0.001885
3901,3.901,368,0.00184
3902,3.902,357,0.001785
3903,3.903,346,0.00173
3904,3.904,336,0.00168
3905,3.905,320,0.0016
3906,3.906,302,0.00151
3907,3.907,285,0.001425
3908,3.908,267,0.001335
3909,3.909,259,0.001295
3910,3.91,254,0.00127
3911,3.911,249,0.001245
3912,3.912,244,0.00122
3913,3.913,237,0.001185
3914,3.914,229,0.001145
3915,3.915,222,0.00111
3916,3.916,214,0.00107
3917,3.917,198,0.00099
3918,3.918,181,0.000905
3919,3.919,163,0.000815
3920,3.92,145,0.000725
3921,3.921,127,0.000635
3922,3.922,108,0.00054
3923,3.923,90,0.00045
3924,3.924,71,0.000355
3925,3.925,53,0.000265
3926,3.926,34,0.00017
3927,3.927,16,8e-05
3928,3.928,-3,-1.5e-05
3929,3.929,-16,-8e-05
3930,3.93,-28,-0.00014
3931,3.931,-39,-0.000195
3932,3.932,-51,-0.000255
3933,3.933,-54,-0.00027
3934,3.934,-56,-0.00028
3935,3.935,-57,-0.000285
3936,3.936,-58,-0.00029
3937,3.937,-57,-0.000285
3938,3.938,-56,-0.00028
3939,3.939,-54,-0.00027
3940,3.94,-53,-0.000265
3941,3.941,-52,-0.00026
3942,3.942,-52,-0.00026
3943,3.943,-52,-0.00026
3944,3.944,-52,-0.00026
3945,3.945,-50,-0.00025
3946,3.946,-47,-0.000235
3947,3.947,-44,-0.00022
3948,3.948,-41,-0.000205
3949,3.949,-39,-0.000195
3950,3.95,-36,-0.00018
3951,3.951,-34,-0.00017
3952,3.952,-32,-0.00016
3953,3.953,-30,-0.00015
3954,3.954,-29,-0.000145
3955,3.955,-27,-0.000135
3956,3.956,-26,-0.00013
3957,3.957,-24,-0.00012
3958,3.958,-21,-0.000105
3959,3.959,-19,-9.5e-05
3960,3.96,-17,-8.5e-05
3961,3.961,-15,-7.5e-05
3962,3.962,-14,-7e-05
3963,3.963,-12,-6e-05
3964,3.964,-11,-5.5e-05
3965,3.965,-10,-5e-05
3966,3.966,-9,-4.5e-05
3967,3.967,-9,-4.5e-05
3968,3.968,-8,-4e-05
3969,3.969,-7,-3.5e-05
3970,3.97,-6,-3e-05
3971,3.971,-5,-2.5e-05
3972,3.972,-4,-2e-05
3973,3.973,-3,-1.5e-05
3974,3.974,-2,-1e-05
3975,3.975,-1,-5e-06
3976,3.976,-1,-5e-06
3977,3.977,0,0.0
3978,3.978,1,5e-06
3979,3.979,2,1e-05
3980,3.98,3,1.5e-05
3981,3.981,5,2.5e-05
3982,3.982,7,3.5e-05
3983,3.983,9,4.5e-05
3984,3.984,11,5.5e-05
3985,3.985,12,6e-05
3986,3.986,13,6.5e-05
3987,3.987,14,7e-05
3988,3.988,14,7e-05
3989,3.989,14,7e-05
3990,3.99,13,6.5e-05
3991,3.991,13,6.5e-05
3992,3.992,12,6e-05
3993,3.993,12,6e-05
3994,3.994,12,6e-05
3995,3.995,12,6e-05
3996,3.996,12,6e-05
3997,3.997,12,6e-05
3998,3.998,13,6.5e-05
3999,3.999,13,6.5e-05
4000,4.0,14,7e-05
4001,4.001,13,6.5e-05
4002,4.002,13,6.5e-05
4003,4.003,13,6.5e-05
4004,4.004,13,6.5e-05
4005,4.005,14,7e-05
4006,4.006,15,7.5e-05
4007,4.007,16,8e-05
4008,4.008,17,8.5e-05
4009,4.009,17,8.5e-05
4010,4.01,15,7.5e-05
4011,4.011,14,7e-05
4012,4.012,13,6.5e-05
4013,4.013,13,6.5e-05
4014,4.014,13,6.5e-05
4015,4.015,13,6.5e-05
4016,4.016,13,6.5e-05
4017,4.017,13,6.5e-05
4018,4.018,13,6.5e-05
4019,4.019,13,6.5e-05
4020,4.02,14,7e-05
4021,4.021,13,6.5e-05
4022,4.022,13,6.5e-05
4023,4.023,13,6.5e-05
4024,4.024,13,6.5e-05
4025,4.025,13,6.5e-05
4026,4.026,14,7e-05
4027,4.027,15,7.5e-05
4028,4.028,15,7.5e-05
4029,4.029,15,7.5e-05
4030,4.03,14,7e-05
4031,4.031,13,6.5e-05
4032,4.032,12,6e-05
4033,4.033,12,6e-05
4034,4.034,12,6e-05
4035,4.035,12,6e-05
4036,4.036,13,6.5e-05
4037,4.037,13,6.5e-05
4038,4.038,13,6.5e-05
4039,4.039,13,6.5e-05
4040,4.04,13,6.5e-05
4041,4.041,13,6.5e-05
4042,4.042,14,7e-05
4043,4.043,14,7e-05
4044,4.044,15,7.5e-05
4045,4.045,15,7.5e-05
4046,4.046,16,8e-05
4047,4.047,16,8e-05
4048,4.048,17,8.5e-05
4049,4.049,17,8.5e-05
4050,4.05,18,9e-05
4051,4.051,18,9e-05
4052,4.052,19,9.5e-05
4053,4.053,18,9e-05
4054,4.054,17,8.5e-05
4055,4.055,16,8e-05
4056,4.056,15,7.5e-05
4057,4.057,14,7e-05
4058,4.058,14,7e-05
4059,4.059,14,7e-05
4060,4.06,14,7e-05
4061,4.061,14,7e-05
4062,4.062,14,7e-05
4063,4.063,14,7e-05
4064,4.064,14,7e-05
4065,4.065,14,7e-05
4066,4.066,14,7e-05
4067,4.067,14,7e-05
4068,4.068,15,7.5e-05
4069,4.069,15,7.5e-05
4070,4.07,16,8e-05
4071,4.071,16,8e-05
4072,4.072,17,8.5e-05
4073,4.073,18,9e-05
4074,4.074,19,9.5e-05
4075,4.075,20,0.0001
4076,4.076,21,0.000105
4077,4.077,22,0.00011
4078,4.078,22,0.00011
4079,4.079,22,0.00011
4080,4.08,23,0.000115
4081,4.081,23,0.000115
4082,4.082,23,0.000115
4083,4.083,23,0.000115
4084,4.084,24,0.00012
4085,4.085,24,0.00012
4086,4.086,24,0.00012
4087,4.087,24,0.00012
4088,4.088,24,0.00012
4089,4.089,24,0.00012
4090,4.09,25,0.000125
4091,4.091,26,0.00013
4092,4.092,27,0.000135
4093,4.093,28,0.00014
4094,4.094,29,0.000145
4095,4.095,29,0.000145
4096,4.096,30,0.00015
4097,4.097,30,0.00015
4098,4.098,31,0.000155
4099,4.099,32,0.00016
4100,4.1,33,0.000165
4101,4.101,35,0.000175
4102,4.102,36,0.00018
4103,4.103,37,0.000185
4104,4.104,38,0.00019
4105,4.105,40,0.0002
4106,4.106,41,0.000205
4107,4.107,42,0.00021
4108,4.108,43,0.000215
4109,4.109,45,0.000225
4110,4.11,46,0.00023
4111,4.111,47,0.000235
4112,4.112,48,0.00024
4113,4.113,49,0.000245
4114,4.114,50,0.00025
4115,4.115,51,0.000255
4116,4.116,51,0.000255
4117,4.117,52,0.00026
4118,4.118,53,0.000265
4119,4.119,54,0.00027
4120,4.12,55,0.000275
4121,4.121,57,0.000285
4122,4.122,58,0.00029
4123,4.123,59,0.000295
4124,4.124,60,0.0003
4125,4.125,60,0.0003
4126,4.126,60,0.0003
4127,4.127,60,0.0003
4128,4.128,60,0.0003
4129,4.129,59,0.000295
4130,4.13,59,0.000295
4131,4.131,59,0.000295
4132,4.132,59,0.000295
4133,4.133,58,0.00029
4134,4.134,57,0.000285
4135,4.135,56,0.00028
4136,4.136,55,0.000275
4137,4.137,55,0.000275
4138,4.138,56,0.00028
4139,4.139,57,0.000285
4140,4.14,57,0.000285
4141,4.141,57,0.000285
4142,4.142,57,0.000285
4143,4.143,56,0.00028
4144,4.144,56,0.00028
4145,4.145,56,0.00028
4146,4.146,56,0.00028
4147,4.147,56,0.00028
4148,4.148,56,0.00028
4149,4.149,55,0.000275
4150,4.15,53,0.000265
4151,4.151,52,0.00026
4152,4.152,51,0.000255
4153,4.153,50,0.00025
4154,4.154,49,0.000245
4155,4.155,49,0.000245
4156,4.156,48,0.00024
4157,4.157,48,0.00024
4158,4.158,48,0.00024
4159,4.159,48,0.00024
4160,4.16,48,0.00024
4161,4.161,47,0.000235
4162,4.162,47,0.000235
4163,4.163,46,0.00023
4164,4.164,46,0.00023
4165,4.165,44,0.00022
4166,4.166,43,0.000215
4167,4.167,41,0.000205
4168,4.168,39,0.000195
4169,4.169,38,0.00019
4170,4.17,38,0.00019
4171,4.171,38,0.00019
4172,4.172,38,0.00019
4173,4.173,37,0.000185
4174,4.174,37,0.000185
4175,4.175,36,0.00018
4176,4.176,36,0.00018
4177,4.177,35,0.000175
4178,4.178,35,0.000175
4179,4.179,35,0.000175
4180,4.18,35,0.000175
4181,4.181,34,0.00017
4182,4.182,34,0.00017
4183,4.183,33,0.000165
4184,4.184,33,0.000165
4185,4.185,32,0.00016
4186,4.186,31,0.000155
4187,4.187,31,0.000155
4188,4.188,30,0.00015
4189,4.189,29,0.000145
4190,4.19,29,0.000145
4191,4.191,28,0.00014
4192,4.192,28,0.00014
4193,4.193,28,0.00014
4194,4.194,29,0.000145
4195,4.195,30,0.00015
4196,4.196,31,0.000155
4197,4.197,31,0.000155
4198,4.198,30,0.00015
4199,4.199,30,0.00015
4200,4.2,29,0.000145
4201,4.201,28,0.00014
4202,4.202,26,0.00013
4203,4.203,25,0.000125
4204,4.204,24,0.00012
4205,4.205,24,0.00012
4206,4.206,25,0.000125
4207,4.207,26,0.00013
4208,4.208,27,0.000135
4209,4.209,27,0.000135
4210,4.21,26,0.00013
4211,4.211,26,0.00013
4212,4.212,25,0.000125
4213,4.213,25,0.000125
4214,4.214,26,0.00013
4215,4.215,26,0.00013
4216,4.216,27,0.000135
4217,4.217,26,0.00013
4218,4.218,24,0.00012
4219,4.219,23,0.000115
4220,4.22,22,0.00011
4221,4.221,22,0.00011
4222,4.222,22,0.00011
4223,4.223,22,0.00011
4224,4.224,22,0.00011
4225,4.225,21,0.000105
4226,4.226,21,0.000105
4227,4.227,21,0.000105
4228,4.228,21,0.000105
4229,4.229,21,0.000105
4230,4.23,21,0.000105
4231,4.231,21,0.000105
4232,4.232,22,0.00011
4233,4.233,22,0.00011
4234,4.234,23,0.000115
4235,4.235,23,0.000115
4236,4.236,24,0.00012
4237,4.237,23,0.000115
4238,4.238,22,0.00011
4239,4.239,21,0.000105
4240,4.24,20,0.0001
4241,4.241,19,9.5e-05
4242,4.242,19,9.5e-05
4243,4.243,19,9.5e-05
4244,4.244,19,9.5e-05
4245,4.245,19,9.5e-05
4246,4.246,19,9.5e-05
4247,4.247,19,9.5e-05
4248,4.248,20,0.0001
4249,4.249,19,9.5e-05
4250,4.25,17,8.5e-05
4251,4.251,16,8e-05
4252,4.252,15,7.5e-05
4253,4.253,15,7.5e-05
4254,4.254,16,8e-05
4255,4.255,17,8.5e-05
4256,4.256,18,9e-05
4257,4.257,19,9.5e-05
4258,4.258,19,9.5e-05
4259,4.259,19,9.5e-05
4260,4.26,20,0.0001
4261,4.261,20,0.0001
4262,4.262,21,0.000105
4263,4.263,21,0.000105
4264,4.264,22,0.00011
4265,4.265,21,0.000105
4266,4.266,20,0.0001
4267,4.267,19,9.5e-05
4268,4.268,18,9e-05
4269,4.269,19,9.5e-05
4270,4.27,22,0.00011
4271,4.271,24,0.00012
4272,4.272,26,0.00013
4273,4.273,27,0.000135
4274,4.274,28,0.00014
4275,4.275,29,0.000145
4276,4.276,30,0.00015
4277,4.277,32,0.00016
4278,4.278,33,0.000165
4279,4.279,35,0.000175
4280,4.28,36,0.00018
4281,4.281,38,0.00019
4282,4.282,40,0.0002
4283,4.283,42,0.00021
4284,4.284,43,0.000215
4285,4.285,44,0.00022
4286,4.286,45,0.000225
4287,4.287,46,0.00023
4288,4.288,47,0.000235
4289,4.289,48,0.00024
4290,4.29,48,0.00024
4291,4.291,48,0.00024
4292,4.292,49,0.000245
4293,4.293,50,0.00025
4294,4.294,51,0.000255
4295,4.295,52,0.00026
4296,4.296,53,0.000265
4297,4.297,55,0.000275
4298,4.298,57,0.000285
4299,4.299,59,0.000295
4300,4.3,61,0.000305
4301,4.301,63,0.000315
4302,4.302,65,0.000325
4303,4.303,67,0.000335
4304,4.304,68,0.00034
4305,4.305,70,0.00035
4306,4.306,71,0.000355
4307,4.307,73,0.000365
4308,4.308,74,0.00037
4309,4.309,75,0.000375
4310,4.31,76,0.00038
4311,4.311,77,0.000385
4312,4.312,77,0.000385
4313,4.313,77,0.000385
4314,4.314,76,0.00038
4315,4.315,75,0.000375
4316,4.316,74,0.00037
4317,4.317,73,0.000365
4318,4.318,73,0.000365
4319,4.319,72,0.00036
4320,4.32,72,0.00036
4321,4.321,71,0.000355
4322,4.322,70,0.00035
4323,4.323,70,0.00035
4324,4.324,69,0.000345
4325,4.325,68,0.00034
4326,4.326,67,0.000335
4327,4.327,67,0.000335
4328,4.328,66,0.00033
4329,4.329,65,0.000325
4330,4.33,63,0.000315
4331,4.331,62,0.00031
4332,4.332,61,0.000305
4333,4.333,59,0.000295
4334,4.334,58,0.00029
4335,4.335,56,0.00028
4336,4.336,55,0.000275
4337,4.337,54,0.00027
4338,4.338,53,0.000265
4339,4.339,52,0.00026
4340,4.34,51,0.000255
4341,4.341,49,0.000245
4342,4.342,46,0.00023
4343,4.343,44,0.00022
4344,4.344,41,0.000205
4345,4.345,39,0.000195
4346,4.346,37,0.000185
4347,4.347,34,0.00017
4348,4.348,32,0.00016
4349,4.349,30,0.00015
4350,4.35,29,0.000145
4351,4.351,27,0.000135
4352,4.352,26,0.00013
4353,4.353,25,0.000125
4354,4.354,25,0.000125
4355,4.355,24,0.00012
4356,4.356,24,0.00012
4357,4.357,21,0.000105
4358,4.358,18,9e-05
4359,4.359,15,7.5e-05
4360,4.36,12,6e-05
4361,4.361,10,5e-05
4362,4.362,8,4e-05
4363,4.363,6,3e-05
4364,4.364,4,2e-05
4365,4.365,3,1.5e-05
4366,4.366,2,1e-05
4367,4.367,1,5e-06
4368,4.368,0,0.0
4369,4.369,-1,-5e-06
4370,4.37,-2,-1e-05
4371,4.371,-3,-1.5e-05
4372,4.372,-4,-2e-05
4373,4.373,-4,-2e-05
4374,4.374,-4,-2e-05
4375,4.375,-4,-2e-05
4376,4.376,-3,-1.5e-05
4377,4.377,-4,-2e-05
4378,4.378,-5,-2.5e-05
4379,4.379,-6,-3e-05
4380,4.38,-7,-3.5e-05
4381,4.381,-8,-4e-05
4382,4.382,-8,-4e-05
4383,4.383,-9,-4.5e-05
4384,4.384,-9,-4.5e-05
4385,4.385,-9,-4.5e-05
4386,4.386,-9,-4.5e-05
4387,4.387,-9,-4.5e-05
4388,4.388,-8,-4e-05
4389,4.389,-9,-4.5e-05
4390,4.39,-9,-4.5e-05
4391,4.391,-10,-5e-05
4392,4.392,-10,-5e-05
4393,4.393,-10,-5e-05
4394,4.394,-9,-4.5e-05
4395,4.395,-9,-4.5e-05
4396,4.396,-8,-4e-05
4397,4.397,-9,-4.5e-05
4398,4.398,-10,-5e-05
4399,4.399,-11,-5.5e-05
4400,4.4,-12,-6e-05
4401,4.401,-12,-6e-05
4402,4.402,-12,-6e-05
4403,4.403,-12,-6e-05
4404,4.404,-12,-6e-05
4405,4.405,-12,-6e-05
4406,4.406,-11,-5.5e-05
4407,4.407,-10,-5e-05
4408,4.408,-10,-5e-05
4409,4.409,-10,-5e-05
4410,4.41,-11,-5.5e-05
4411,4.411,-12,-6e-05
4412,4.412,-13,-6.5e-05
4413,4.413,-14,-7e-05
4414,4.414,-14,-7e-05
4415,4.415,-14,-7e-05
4416,4.416,-14,-7e-05
4417,4.417,-15,-7.5e-05
4418,4.418,-15,-7.5e-05
4419,4.419,-15,-7.5e-05
4420,4.42,-15,-7.5e-05
4421,4.421,-14,-7e-05
4422,4.422,-13,-6.5e-05
4423,4.423,-12,-6e-05
4424,4.424,-11,-5.5e-05
4425,4.425,-11,-5.5e-05
4426,4.426,-13,-6.5e-05
4427,4.427,-14,-7e-05
4428,4.428,-15,-7.5e-05
4429,4.429,-16,-8e-05
4430,4.43,-16,-8e-05
4431,4.431,-17,-8.5e-05
4432,4.432,-17,-8.5e-05
4433,4.433,-18,-9e-05
4434,4.434,-18,-9e-05
4435,4.435,-18,-9e-05
4436,4.436,-18,-9e-05
4437,4.437,-20,-0.0001
4438,4.438,-21,-0.000105
4439,4.439,-23,-0.000115
4440,4.44,-24,-0.00012
4441,4.441,-23,-0.000115
4442,4.442,-20,-0.0001
4443,4.443,-18,-9e-05
4444,4.444,-16,-8e-05
4445,4.445,-12,-6e-05
4446,4.446,-8,-4e-05
4447,4.447,-4,-2e-05
4448,4.448,1,5e-06
4449,4.449,6,3e-05
4450,4.45,11,5.5e-05
4451,4.451,17,8.5e-05
4452,4.452,22,0.00011
4453,4.453,32,0.00016
4454,4.454,42,0.00021
4455,4.455,53,0.000265
4456,4.456,63,0.000315
4457,4.457,73,0.000365
4458,4.458,82,0.00041
4459,4.459,91,0.000455
4460,4.46,100,0.0005
4461,4.461,109,0.000545
4462,4.462,119,0.000595
4463,4.463,129,0.000645
4464,4.464,139,0.000695
4465,4.465,149,0.000745
4466,4.466,158,0.00079
4467,4.467,167,0.000835
4468,4.468,176,0.00088
4469,4.469,187,0.000935
4470,4.47,198,0.00099
4471,4.471,210,0.00105
4472,4.472,221,0.001105
4473,4.473,231,0.001155
4474,4.474,241,0.001205
4475,4.475,250,0.00125
4476,4.476,260,0.0013
4477,4.477,268,0.00134
4478,4.478,275,0.001375
4479,4.479,283,0.001415
4480,4.48,291,0.001455
4481,4.481,298,0.00149
4482,4.482,306,0.00153
4483,4.483,313,0.001565
4484,4.484,321,0.001605
4485,4.485,325,0.001625
4486,4.486,328,0.00164
4487,4.487,331,0.001655
4488,4.488,334,0.00167
4489,4.489,327,0.001635
4490,4.49,317,0.001585
4491,4.491,307,0.001535
4492,4.492,297,0.001485
4493,4.493,279,0.001395
4494,4.494,259,0.001295
4495,4.495,238,0.00119
4496,4.496,218,0.00109
4497,4.497,208,0.00104
4498,4.498,201,0.001005
4499,4.499,194,0.00097
4500,4.5,186,0.00093
4501,4.501,179,0.000895
4502,4.502,173,0.000865
4503,4.503,166,0.00083
4504,4.504,159,0.000795
4505,4.505,143,0.000715
4506,4.506,124,0.00062
4507,4.507,106,0.00053
4508,4.508,87,0.000435
4509,4.509,67,0.000335
4510,4.51,46,0.00023
4511,4.511,26,0.00013
4512,4.512,5,2.5e-05
4513,4.513,-14,-7e-05
4514,4.514,-34,-0.00017
4515,4.515,-53,-0.000265
4516,4.516,-73,-0.000365
4517,4.517,-90,-0.00045
4518,4.518,-105,-0.000525
4519,4.519,-121,-0.000605
4520,4.52,-137,-0.000685
4521,4.521,-143,-0.000715
4522,4.522,-146,-0.00073
4523,4.523,-149,-0.000745
4524,4.524,-153,-0.000765
4525,4.525,-153,-0.000765
4526,4.526,-152,-0.00076
4527,4.527,-151,-0.000755
4528,4.528,-151,-0.000755
4529,4.529,-149,-0.000745
4530,4.53,-148,-0.00074
4531,4.531,-147,-0.000735
4532,4.532,-146,-0.00073
4533,4.533,-145,-0.000725
4534,4.534,-144,-0.00072
4535,4.535,-143,-0.000715
4536,4.536,-142,-0.00071
4537,4.537,-140,-0.0007
4538,4.538,-137,-0.000685
4539,4.539,-135,-0.000675
4540,4.54,-133,-0.000665
4541,4.541,-131,-0.000655
4542,4.542,-128,-0.00064
4543,4.543,-126,-0.00063
4544,4.544,-124,-0.00062
4545,4.545,-123,-0.000615
4546,4.546,-122,-0.00061
4547,4.547,-121,-0.000605
4548,4.548,-120,-0.0006
4549,4.549,-118,-0.00059
4550,4.55,-115,-0.000575
4551,4.551,-113,-0.000565
4552,4.552,-111,-0.000555
4553,4.553,-110,-0.00055
4554,4.554,-109,-0.000545
4555,4.555,-108,-0.00054
4556,4.556,-107,-0.000535
4557,4.557,-105,-0.000525
4558,4.558,-104,-0.00052
4559,4.559,-102,-0.00051
4560,4.56,-101,-0.000505
4561,4.561,-100,-0.0005
4562,4.562,-100,-0.0005
4563,4.563,-100,-0.0005
4564,4.564,-100,-0.0005
4565,4.565,-99,-0.000495
4566,4.566,-97,-0.000485
4567,4.567,-96,-0.00048
4568,4.568,-94,-0.00047
4569,4.569,-92,-0.00046
4570,4.57,-89,-0.000445
4571,4.571,-87,-0.000435
4572,4.572,-85,-0.000425
4573,4.573,-83,-0.000415
4574,4.574,-82,-0.00041
4575,4.575,-81,-0.000405
4576,4.576,-80,-0.0004
4577,4.577,-80,-0.0004
4578,4.578,-80,-0.0004
4579,4.579,-80,-0.0004
4580,4.58,-80,-0.0004
4581,4.581,-80,-0.0004
4582,4.582,-79,-0.000395
4583,4.583,-78,-0.00039
4584,4.584,-78,-0.00039
4585,4.585,-78,-0.00039
4586,4.586,-79,-0.000395
4587,4.587,-79,-0.000395
4588,4.588,-80,-0.0004
4589,4.589,-80,-0.0004
4590,4.59,-79,-0.000395
4591,4.591,-78,-0.00039
4592,4.592,-78,-0.00039
4593,4.593,-77,-0.000385
4594,4.594,-77,-0.000385
4595,4.595,-77,-0.000385
4596,4.596,-76,-0.00038
4597,4.597,-76,-0.00038
4598,4.598,-76,-0.00038
4599,4.599,-76,-0.00038
4600,4.6,-76,-0.00038
4601,4.601,-77,-0.000385
4602,4.602,-78,-0.00039
4603,4.603,-78,-0.00039
4604,4.604,-79,-0.000395
4605,4.605,-79,-0.000395
4606,4.606,-79,-0.000395
4607,4.607,-79,-0.000395
4608,4.608,-79,-0.000395
4609,4.609,-80,-0.0004
4610,4.61,-81,-0.000405
4611,4.611,-81,-0.000405
4612,4.612,-82,-0.00041
4613,4.613,-82,-0.00041
4614,4.614,-82,-0.00041
4615,4.615,-82,-0.00041
4616,4.616,-82,-0.00041
4617,4.617,-82,-0.00041
4618,4.618,-81,-0.000405
4619,4.619,-80,-0.0004
4620,4.62,-80,-0.0004
4621,4.621,-79,-0.000395
4622,4.622,-79,-0.000395
4623,4.623,-79,-0.000395
4624,4.624,-79,-0.000395
4625,4.625,-79,-0.000395
4626,4.626,-79,-0.000395
4627,4.627,-79,-0.000395
4628,4.628,-79,-0.000395
4629,4.629,-80,-0.0004
4630,4.63,-80,-0.0004
4631,4.631,-80,-0.0004
4632,4.632,-80,-0.0004
4633,4.633,-80,-0.0004
4634,4.634,-79,-0.000395
4635,4.635,-78,-0.00039
4636,4.636,-78,-0.00039
4637,4.637,-77,-0.000385
4638,4.638,-76,-0.00038
4639,4.639,-75,-0.000375
4640,4.64,-75,-0.000375
4641,4.641,-74,-0.00037
4642,4.642,-74,-0.00037
4643,4.643,-74,-0.00037
4644,4.644,-74,-0.00037
4645,4.645,-75,-0.000375
4646,4.646,-75,-0.000375
4647,4.647,-75,-0.000375
4648,4.648,-75,-0.000375
4649,4.649,-75,-0.000375
4650,4.65,-74,-0.00037
4651,4.651,-73,-0.000365
4652,4.652,-72,-0.00036
4653,4.653,-71,-0.000355
4654,4.654,-70,-0.00035
4655,4.655,-70,-0.00035
4656,4.656,-69,-0.000345
4657,4.657,-70,-0.00035
4658,4.658,-70,-0.00035
4659,4.659,-70,-0.00035
4660,4.66,-70,-0.00035
4661,4.661,-71,-0.000355
4662,4.662,-72,-0.00036
4663,4.663,-73,-0.000365
4664,4.664,-74,-0.00037
4665,4.665,-73,-0.000365
4666,4.666,-72,-0.00036
4667,4.667,-70,-0.00035
4668,4.668,-69,-0.000345
4669,4.669,-68,-0.00034
4670,4.67,-67,-0.000335
4671,4.671,-66,-0.00033
4672,4.672,-65,-0.000325
4673,4.673,-64,-0.00032
4674,4.674,-63,-0.000315
4675,4.675,-62,-0.00031
4676,4.676,-61,-0.000305
4677,4.677,-60,-0.0003
4678,4.678,-59,-0.000295
4679,4.679,-58,-0.00029
4680,4.68,-58,-0.00029
4681,4.681,-57,-0.000285
4682,4.682,-57,-0.000285
4683,4.683,-57,-0.000285
4684,4.684,-56,-0.00028
4685,4.685,-55,-0.000275
4686,4.686,-53,-0.000265
4687,4.687,-52,-0.00026
4688,4.688,-50,-0.00025
4689,4.689,-49,-0.000245
4690,4.69,-48,-0.00024
4691,4.691,-47,-0.000235
4692,4.692,-46,-0.00023
4693,4.693,-45,-0.000225
4694,4.694,-44,-0.00022
4695,4.695,-43,-0.000215
4696,4.696,-42,-0.00021
4697,4.697,-41,-0.000205
4698,4.698,-40,-0.0002
4699,4.699,-39,-0.000195
4700,4.7,-38,-0.00019
4701,4.701,-37,-0.000185
4702,4.702,-36,-0.00018
4703,4.703,-35,-0.000175
4704,4.704,-34,-0.00017
4705,4.705,-32,-0.00016
4706,4.706,-31,-0.000155
4707,4.707,-30,-0.00015
4708,4.708,-29,-0.000145
4709,4.709,-28,-0.00014
4710,4.71,-27,-0.000135
4711,4.711,-27,-0.000135
4712,4.712,-26,-0.00013
4713,4.713,-26,-0.00013
4714,4.714,-26,-0.00013
4715,4.715,-26,-0.00013
4716,4.716,-26,-0.00013
4717,4.717,-26,-0.00013
4718,4.718,-25,-0.000125
4719,4.719,-25,-0.000125
4720,4.72,-24,-0.00012
4721,4.721,-24,-0.00012
4722,4.722,-24,-0.00012
4723,4.723,-24,-0.00012
4724,4.724,-24,-0.00012
4725,4.725,-24,-0.00012
4726,4.726,-24,-0.00012
4727,4.727,-24,-0.00012
4728,4.728,-23,-0.000115
4729,4.729,-24,-0.00012
4730,4.73,-25,-0.000125
4731,4.731,-25,-0.000125
4732,4.732,-26,-0.00013
4733,4.733,-26,-0.00013
4734,4.734,-26,-0.00013
4735,4.735,-26,-0.00013
4736,4.736,-26,-0.00013
4737,4.737,-26,-0.00013
4738,4.738,-26,-0.00013
4739,4.739,-26,-0.00013
4740,4.74,-26,-0.00013
4741,4.741,-28,-0.00014
4742,4.742,-29,-0.000145
4743,4.743,-31,-0.000155
4744,4.744,-33,-0.000165
4745,4.745,-34,-0.00017
4746,4.746,-34,-0.00017
4747,4.747,-35,-0.000175
4748,4.748,-35,-0.000175
4749,4.749,-36,-0.00018
4750,4.75,-36,-0.00018
4751,4.751,-37,-0.000185
4752,4.752,-37,-0.000185
4753,4.753,-38,-0.00019
4754,4.754,-39,-0.000195
4755,4.755,-40,-0.0002
4756,4.756,-41,-0.000205
4757,4.757,-42,-0.00021
4758,4.758,-43,-0.000215
4759,4.759,-43,-0.000215
4760,4.76,-44,-0.00022
4761,4.761,-46,-0.00023
4762,4.762,-48,-0.00024
4763,4.763,-50,-0.00025
4764,4.764,-52,-0.00026
4765,4.765,-52,-0.00026
4766,4.766,-52,-0.00026
4767,4.767,-52,-0.00026
4768,4.768,-52,-0.00026
4769,4.769,-52,-0.00026
4770,4.77,-51,-0.000255
4771,4.771,-50,-0.00025
4772,4.772,-50,-0.00025
4773,4.773,-49,-0.000245
4774,4.774,-49,-0.000245
4775,4.775,-49,-0.000245
4776,4.776,-48,-0.00024
4777,4.777,-49,-0.000245
4778,4.778,-50,-0.00025
4779,4.779,-50,-0.00025
4780,4.78,-51,-0.000255
4781,4.781,-53,-0.000265
4782,4.782,-54,-0.00027
4783,4.783,-56,-0.00028
4784,4.784,-57,-0.000285
4785,4.785,-57,-0.000285
4786,4.786,-57,-0.000285
4787,4.787,-57,-0.000285
4788,4.788,-57,-0.000285
4789,4.789,-56,-0.00028
4790,4.79,-54,-0.00027
4791,4.791,-53,-0.000265
4792,4.792,-51,-0.000255
4793,4.793,-51,-0.000255
4794,4.794,-51,-0.000255
4795,4.795,-51,-0.000255
4796,4.796,-51,-0.000255
4797,4.797,-53,-0.000265
4798,4.798,-55,-0.000275
4799,4.799,-57,-0.000285
4800,4.8,-59,-0.000295
4801,4.801,-59,-0.000295
4802,4.802,-58,-0.00029
4803,4.803,-57,-0.000285
4804,4.804,-57,-0.000285
4805,4.805,-57,-0.000285
4806,4.806,-59,-0.000295
4807,4.807,-60,-0.0003
4808,4.808,-61,-0.000305
4809,4.809,-61,-0.000305
4810,4.81,-61,-0.000305
4811,4.811,-61,-0.000305
4812,4.812,-60,-0.0003
4813,4.813,-60,-0.0003
4814,4.814,-60,-0.0003
4815,4.815,-60,-0.0003
4816,4.816,-59,-0.000295
4817,4.817,-59,-0.000295
4818,4.818,-59,-0.000295
4819,4.819,-59,-0.000295
4820,4.82,-59,-0.000295
4821,4.821,-59,-0.000295
4822,4.822,-58,-0.00029
4823,4.823,-57,-0.000285
4824,4.824,-56,-0.00028
4825,4.825,-56,-0.00028
4826,4.826,-57,-0.000285
4827,4.827,-58,-0.00029
4828,4.828,-59,-0.000295
4829,4.829,-59,-0.000295
4830,4.83,-59,-0.000295
4831,4.831,-59,-0.000295
4832,4.832,-59,-0.000295
4833,4.833,-59,-0.000295
4834,4.834,-59,-0.000295
4835,4.835,-59,-0.000295
4836,4.836,-58,-0.00029
4837,4.837,-57,-0.000285
4838,4.838,-56,-0.00028
4839,4.839,-55,-0.000275
4840,4.84,-54,-0.00027
4841,4.841,-54,-0.00027
4842,4.842,-55,-0.000275
4843,4.843,-56,-0.00028
4844,4.844,-57,-0.000285
4845,4.845,-56,-0.00028
4846,4.846,-55,-0.000275
4847,4.847,-54,-0.00027
4848,4.848,-53,-0.000265
4849,4.849,-52,-0.00026
4850,4.85,-52,-0.00026
4851,4.851,-52,-0.00026
4852,4.852,-51,-0.000255
4853,4.853,-51,-0.000255
4854,4.854,-51,-0.000255
4855,4.855,-51,-0.000255
4856,4.856,-50,-0.00025
4857,4.857,-50,-0.00025
4858,4.858,-50,-0.00025
4859,4.859,-50,-0.00025
4860,4.86,-49,-0.000245
4861,4.861,-48,-0.00024
4862,4.862,-46,-0.00023
4863,4.863,-44,-0.00022
4864,4.864,-42,-0.00021
4865,4.865,-40,-0.0002
4866,4.866,-38,-0.00019
4867,4.867,-37,-0.000185
4868,4.868,-35,-0.000175
4869,4.869,-33,-0.000165
4870,4.87,-31,-0.000155
4871,4.871,-30,-0.00015
4872,4.872,-28,-0.00014
4873,4.873,-26,-0.00013
4874,4.874,-24,-0.00012
4875,4.875,-22,-0.00011
4876,4.876,-20,-0.0001
4877,4.877,-18,-9e-05
4878,4.878,-17,-8.5e-05
4879,4.879,-16,-8e-05
4880,4.88,-15,-7.5e-05
4881,4.881,-14,-7e-05
4882,4.882,-13,-6.5e-05
4883,4.883,-12,-6e-05
4884,4.884,-11,-5.5e-05
4885,4.885,-8,-4e-05
4886,4.886,-6,-3e-05
4887,4.887,-3,-1.5e-05
4888,4.888,0,0.0
4889,4.889,2,1e-05
4890,4.89,5,2.5e-05
4891,4.891,7,3.5e-05
4892,4.892,9,4.5e-05
4893,4.893,10,5e-05
4894,4.894,10,5e-05
4895,4.895,10,5e-05
4896,4.896,11,5.5e-05
4897,4.897,12,6e-05
4898,4.898,15,7.5e-05
4899,4.899,17,8.5e-05
4900,4.9,19,9.5e-05
4901,4.901,21,0.000105
4902,4.902,22,0.00011
4903,4.903,23,0.000115
4904,4.904,24,0.00012
4905,4.905,24,0.00012
4906,4.906,24,0.00012
4907,4.907,24,0.00012
4908,4.908,24,0.00012
4909,4.909,23,0.000115
4910,4.91,21,0.000105
4911,4.911,20,0.0001
4912,4.912,18,9e-05
4913,4.913,17,8.5e-05
4914,4.914,15,7.5e-05
4915,4.915,14,7e-05
4916,4.916,13,6.5e-05
4917,4.917,12,6e-05
4918,4.918,12,6e-05
4919,4.919,11,5.5e-05
4920,4.92,11,5.5e-05
4921,4.921,10,5e-05
4922,4.922,9,4.5e-05
4923,4.923,9,4.5e-05
4924,4.924,8,4e-05
4925,4.925,5,2.5e-05
4926,4.926,2,1e-05
4927,4.927,-1,-5e-06
4928,4.928,-4,-2e-05
4929,4.929,-5,-2.5e-05
4930,4.93,-6,-3e-05
4931,4.931,-7,-3.5e-05
4932,4.932,-8,-4e-05
4933,4.933,-10,-5e-05
4934,4.934,-13,-6.5e-05
4935,4.935,-16,-8e-05
4936,4.936,-19,-9.5e-05
4937,4.937,-20,-0.0001
4938,4.938,-22,-0.00011
4939,4.939,-23,-0.000115
4940,4.94,-24,-0.00012
4941,4.941,-27,-0.000135
4942,4.942,-30,-0.00015
4943,4.943,-33,-0.000165
4944,4.944,-36,-0.00018
4945,4.945,-37,-0.000185
4946,4.946,-37,-0.000185
4947,4.947,-37,-0.000185
4948,4.948,-37,-0.000185
4949,4.949,-39,-0.000195
4950,4.95,-42,-0.00021
4951,4.951,-44,-0.00022
4952,4.952,-47,-0.000235
4953,4.953,-48,-0.00024
4954,4.954,-49,-0.000245
4955,4.955,-50,-0.00025
4956,4.956,-51,-0.000255
4957,4.957,-52,-0.00026
4958,4.958,-54,-0.00027
4959,4.959,-55,-0.000275
4960,4.96,-56,-0.00028
4961,4.961,-58,-0.00029
4962,4.962,-59,-0.000295
4963,4.963,-61,-0.000305
4964,4.964,-63,-0.000315
4965,4.965,-64,-0.00032
4966,4.966,-65,-0.000325
4967,4.967,-66,-0.00033
4968,4.968,-67,-0.000335
4969,4.969,-67,-0.000335
4970,4.97,-66,-0.00033
4971,4.971,-65,-0.000325
4972,4.972,-65,-0.000325
4973,4.973,-64,-0.00032
4974,4.974,-63,-0.000315
4975,4.975,-63,-0.000315
4976,4.976,-62,-0.00031
4977,4.977,-63,-0.000315
4978,4.978,-64,-0.00032
4979,4.979,-65,-0.000325
4980,4.98,-66,-0.00033
4981,4.981,-67,-0.000335
4982,4.982,-67,-0.000335
4983,4.983,-67,-0.000335
4984,4.984,-67,-0.000335
4985,4.985,-67,-0.000335
4986,4.986,-66,-0.00033
4987,4.987,-65,-0.000325
4988,4.988,-65,-0.000325
4989,4.989,-65,-0.000325
4990,4.99,-66,-0.00033
4991,4.991,-66,-0.00033
4992,4.992,-67,-0.000335
4993,4.993,-67,-0.000335
4994,4.994,-67,-0.000335
4995,4.995,-67,-0.000335
4996,4.996,-67,-0.000335
4997,4.997,-68,-0.00034
4998,4.998,-69,-0.000345
4999,4.999,-70,-0.00035
