sample_index,time_s,code_signed,voltage_V
0,0.0,-85,-0.000425
1,0.001,-88,-0.00044
2,0.002,-90,-0.00045
3,0.003,-93,-0.000465
4,0.004,-95,-0.000475
5,0.005,-97,-0.000485
6,0.006,-98,-0.00049
7,0.007,-99,-0.000495
8,0.008,-100,-0.0005
9,0.009,-102,-0.00051
10,0.01,-104,-0.00052
11,0.011,-106,-0.00053
12,0.012,-107,-0.000535
13,0.013,-110,-0.00055
14,0.014,-112,-0.00056
15,0.015,-114,-0.00057
16,0.016,-116,-0.00058
17,0.017,-118,-0.00059
18,0.018,-119,-0.000595
19,0.019,-121,-0.000605
20,0.02,-122,-0.00061
21,0.021,-124,-0.00062
22,0.022,-125,-0.000625
23,0.023,-126,-0.00063
24,0.024,-127,-0.000635
25,0.025,-129,-0.000645
26,0.026,-130,-0.00065
27,0.027,-131,-0.000655
28,0.028,-132,-0.00066
29,0.029,-135,-0.000675
30,0.03,-137,-0.000685
31,0.031,-139,-0.000695
32,0.032,-141,-0.000705
33,0.033,-141,-0.000705
34,0.034,-141,-0.000705
35,0.035,-141,-0.000705
36,0.036,-141,-0.000705
37,0.037,-142,-0.00071
38,0.038,-143,-0.000715
39,0.039,-144,-0.00072
40,0.04,-144,-0.00072
41,0.041,-146,-0.00073
42,0.042,-147,-0.000735
43,0.043,-149,-0.000745
44,0.044,-150,-0.00075
45,0.045,-152,-0.00076
46,0.046,-154,-0.00077
47,0.047,-156,-0.00078
48,0.048,-157,-0.000785
49,0.049,-159,-0.000795
50,0.05,-161,-0.000805
51,0.051,-163,-0.000815
52,0.052,-164,-0.00082
53,0.053,-165,-0.000825
54,0.054,-165,-0.000825
55,0.055,-165,-0.000825
56,0.056,-165,-0.000825
57,0.057,-167,-0.000835
58,0.058,-169,-0.000845
59,0.059,-171,-0.000855
60,0.06,-172,-0.00086
61,0.061,-173,-0.000865
62,0.062,-174,-0.00087
63,0.063,-175,-0.000875
64,0.064,-176,-0.00088
65,0.065,-177,-0.000885
66,0.066,-177,-0.000885
67,0.067,-177,-0.000885
68,0.068,-177,-0.000885
69,0.069,-178,-0.00089
70,0.07,-179,-0.000895
71,0.071,-180,-0.0009
72,0.072,-181,-0.000905
73,0.073,-182,-0.00091
74,0.074,-183,-0.000915
75,0.075,-184,-0.00092
76,0.076,-184,-0.00092
77,0.077,-184,-0.00092
78,0.078,-184,-0.00092
79,0.079,-184,-0.00092
80,0.08,-183,-0.000915
81,0.081,-182,-0.00091
82,0.082,-180,-0.0009
83,0.083,-178,-0.00089
84,0.084,-176,-0.00088
85,0.085,-175,-0.000875
86,0.086,-174,-0.00087
87,0.087,-173,-0.000865
88,0.088,-171,-0.000855
89,0.089,-169,-0.000845
90,0.09,-166,-0.00083
91,0.091,-164,-0.00082
92,0.092,-161,-0.000805
93,0.093,-161,-0.000805
94,0.094,-160,-0.0008
95,0.095,-160,-0.0008
96,0.096,-159,-0.000795
97,0.097,-159,-0.000795
98,0.098,-158,-0.00079
99,0.099,-157,-0.000785
100,0.1,-156,-0.00078
101,0.101,-156,-0.00078
102,0.102,-156,-0.00078
103,0.103,-156,-0.00078
104,0.104,-156,-0.00078
105,0.105,-155,-0.000775
106,0.106,-153,-0.000765
107,0.107,-151,-0.000755
108,0.108,-149,-0.000745
109,0.109,-147,-0.000735
110,0.11,-145,-0.000725
111,0.111,-143,-0.000715
112,0.112,-141,-0.000705
113,0.113,-140,-0.0007
114,0.114,-138,-0.00069
115,0.115,-136,-0.00068
116,0.116,-134,-0.00067
117,0.117,-132,-0.00066
118,0.118,-129,-0.000645
119,0.119,-126,-0.00063
120,0.12,-123,-0.000615
121,0.121,-121,-0.000605
122,0.122,-119,-0.000595
123,0.123,-117,-0.000585
124,0.124,-115,-0.000575
125,0.125,-112,-0.00056
126,0.126,-109,-0.000545
127,0.127,-106,-0.00053
128,0.128,-102,-0.00051
129,0.129,-99,-0.000495
130,0.13,-96,-0.00048
131,0.131,-93,-0.000465
132,0.132,-90,-0.00045
133,0.133,-87,-0.000435
134,0.134,-84,-0.00042
135,0.135,-81,-0.000405
136,0.136,-78,-0.00039
137,0.137,-75,-0.000375
138,0.138,-72,-0.00036
139,0.139,-69,-0.000345
140,0.14,-65,-0.000325
141,0.141,-63,-0.000315
142,0.142,-61,-0.000305
143,0.143,-59,-0.000295
144,0.144,-57,-0.000285
145,0.145,-57,-0.000285
146,0.146,-57,-0.000285
147,0.147,-57,-0.000285
148,0.148,-56,-0.00028
149,0.149,-55,-0.000275
150,0.15,-53,-0.000265
151,0.151,-51,-0.000255
152,0.152,-49,-0.000245
153,0.153,-48,-0.00024
154,0.154,-46,-0.00023
155,0.155,-45,-0.000225
156,0.156,-43,-0.000215
157,0.157,-42,-0.00021
158,0.158,-41,-0.000205
159,0.159,-40,-0.0002
160,0.16,-38,-0.00019
161,0.161,-37,-0.000185
162,0.162,-35,-0.000175
163,0.163,-33,-0.000165
164,0.164,-31,-0.000155
165,0.165,-30,-0.00015
166,0.166,-28,-0.00014
167,0.167,-27,-0.000135
168,0.168,-25,-0.000125
169,0.169,-24,-0.00012
170,0.17,-23,-0.000115
171,0.171,-22,-0.00011
172,0.172,-21,-0.000105
173,0.173,-20,-0.0001
174,0.174,-19,-9.5e-05
175,0.175,-18,-9e-05
176,0.176,-16,-8e-05
177,0.177,-16,-8e-05
178,0.178,-15,-7.5e-05
179,0.179,-15,-7.5e-05
180,0.18,-14,-7e-05
181,0.181,-14,-7e-05
182,0.182,-14,-7e-05
183,0.183,-14,-7e-05
184,0.184,-13,-6.5e-05
185,0.185,-13,-6.5e-05
186,0.186,-13,-6.5e-05
187,0.187,-13,-6.5e-05
188,0.188,-13,-6.5e-05
189,0.189,-12,-6e-05
190,0.19,-11,-5.5e-05
191,0.191,-10,-5e-05
192,0.192,-9,-4.5e-05
193,0.193,-10,-5e-05
194,0.194,-11,-5.5e-05
195,0.195,-12,-6e-05
196,0.196,-12,-6e-05
197,0.197,-11,-5.5e-05
198,0.198,-10,-5e-05
199,0.199,-9,-4.5e-05
200,0.2,-8,-4e-05
201,0.201,-10,-5e-05
202,0.202,-11,-5.5e-05
203,0.203,-13,-6.5e-05
204,0.204,-14,-7e-05
205,0.205,-14,-7e-05
206,0.206,-13,-6.5e-05
207,0.207,-13,-6.5e-05
208,0.208,-12,-6e-05
209,0.209,-10,-5e-05
210,0.21,-8,-4e-05
211,0.211,-6,-3e-05
212,0.212,-4,-2e-05
213,0.213,-3,-1.5e-05
214,0.214,-1,-5e-06
215,0.215,0,0.0
216,0.216,2,1e-05
217,0.217,2,1e-05
218,0.218,2,1e-05
219,0.219,2,1e-05
220,0.22,2,1e-05
221,0.221,1,5e-06
222,0.222,0,0.0
223,0.223,-1,-5e-06
224,0.224,-2,-1e-05
225,0.225,-2,-1e-05
226,0.226,-2,-1e-05
227,0.227,-2,-1e-05
228,0.228,-1,-5e-06
229,0.229,-2,-1e-05
230,0.23,-3,-1.5e-05
231,0.231,-4,-2e-05
232,0.232,-4,-2e-05
233,0.233,-4,-2e-05
234,0.234,-4,-2e-05
235,0.235,-4,-2e-05
236,0.236,-4,-2e-05
237,0.237,-3,-1.5e-05
238,0.238,-2,-1e-05
239,0.239,-1,-5e-06
240,0.24,0,0.0
241,0.241,-2,-1e-05
242,0.242,-3,-1.5e-05
243,0.243,-4,-2e-05
244,0.244,-5,-2.5e-05
245,0.245,-5,-2.5e-05
246,0.246,-5,-2.5e-05
247,0.247,-5,-2.5e-05
248,0.248,-4,-2e-05
249,0.249,-5,-2.5e-05
250,0.25,-6,-3e-05
251,0.251,-7,-3.5e-05
252,0.252,-7,-3.5e-05
253,0.253,-9,-4.5e-05
254,0.254,-10,-5e-05
255,0.255,-11,-5.5e-05
256,0.256,-12,-6e-05
257,0.257,-11,-5.5e-05
258,0.258,-9,-4.5e-05
259,0.259,-8,-4e-05
260,0.26,-6,-3e-05
261,0.261,-5,-2.5e-05
262,0.262,-4,-2e-05
263,0.263,-3,-1.5e-05
264,0.264,-2,-1e-05
265,0.265,-2,-1e-05
266,0.266,-2,-1e-05
267,0.267,-2,-1e-05
268,0.268,-1,-5e-06
269,0.269,-1,-5e-06
270,0.27,-1,-5e-06
271,0.271,-1,-5e-06
272,0.272,0,0.0
273,0.273,-1,-5e-06
274,0.274,-1,-5e-06
275,0.275,-1,-5e-06
276,0.276,-1,-5e-06
277,0.277,-1,-5e-06
278,0.278,-1,-5e-06
279,0.279,-1,-5e-06
280,0.28,0,0.0
281,0.281,-1,-5e-06
282,0.282,-1,-5e-06
283,0.283,-2,-1e-05
284,0.284,-2,-1e-05
285,0.285,-3,-1.5e-05
286,0.286,-4,-2e-05
287,0.287,-5,-2.5e-05
288,0.288,-6,-3e-05
289,0.289,-6,-3e-05
290,0.29,-6,-3e-05
291,0.291,-6,-3e-05
292,0.292,-5,-2.5e-05
293,0.293,-6,-3e-05
294,0.294,-6,-3e-05
295,0.295,-7,-3.5e-05
296,0.296,-7,-3.5e-05
297,0.297,-8,-4e-05
298,0.298,-9,-4.5e-05
299,0.299,-10,-5e-05
300,0.3,-10,-5e-05
301,0.301,-9,-4.5e-05
302,0.302,-8,-4e-05
303,0.303,-7,-3.5e-05
304,0.304,-5,-2.5e-05
305,0.305,-5,-2.5e-05
306,0.306,-4,-2e-05
307,0.307,-4,-2e-05
308,0.308,-3,-1.5e-05
309,0.309,-2,-1e-05
310,0.31,-1,-5e-06
311,0.311,0,0.0
312,0.312,1,5e-06
313,0.313,0,0.0
314,0.314,-1,-5e-06
315,0.315,-2,-1e-05
316,0.316,-3,-1.5e-05
317,0.317,-4,-2e-05
318,0.318,-4,-2e-05
319,0.319,-5,-2.5e-05
320,0.32,-5,-2.5e-05
321,0.321,-5,-2.5e-05
322,0.322,-4,-2e-05
323,0.323,-4,-2e-05
324,0.324,-3,-1.5e-05
325,0.325,-2,-1e-05
326,0.326,-1,-5e-06
327,0.327,0,0.0
328,0.328,1,5e-06
329,0.329,0,0.0
330,0.33,0,0.0
331,0.331,-1,-5e-06
332,0.332,-1,-5e-06
333,0.333,-3,-1.5e-05
334,0.334,-4,-2e-05
335,0.335,-5,-2.5e-05
336,0.336,-6,-3e-05
337,0.337,-5,-2.5e-05
338,0.338,-4,-2e-05
339,0.339,-3,-1.5e-05
340,0.34,-1,-5e-06
341,0.341,-3,-1.5e-05
342,0.342,-4,-2e-05
343,0.343,-6,-3e-05
344,0.344,-7,-3.5e-05
345,0.345,-7,-3.5e-05
346,0.346,-7,-3.5e-05
347,0.347,-7,-3.5e-05
348,0.348,-6,-3e-05
349,0.349,-6,-3e-05
350,0.35,-5,-2.5e-05
351,0.351,-4,-2e-05
352,0.352,-3,-1.5e-05
353,0.353,-5,-2.5e-05
354,0.354,-6,-3e-05
355,0.355,-7,-3.5e-05
356,0.356,-8,-4e-05
357,0.357,-7,-3.5e-05
358,0.358,-6,-3e-05
359,0.359,-5,-2.5e-05
360,0.36,-4,-2e-05
361,0.361,-3,-1.5e-05
362,0.362,-2,-1e-05
363,0.363,-1,-5e-06
364,0.364,1,5e-06
365,0.365,0,0.0
366,0.366,0,0.0
367,0.367,-1,-5e-06
368,0.368,-1,-5e-06
369,0.369,-2,-1e-05
370,0.37,-3,-1.5e-05
371,0.371,-4,-2e-05
372,0.372,-5,-2.5e-05
373,0.373,-6,-3e-05
374,0.374,-7,-3.5e-05
375,0.375,-8,-4e-05
376,0.376,-8,-4e-05
377,0.377,-8,-4e-05
378,0.378,-8,-4e-05
379,0.379,-8,-4e-05
380,0.38,-8,-4e-05
381,0.381,-9,-4.5e-05
382,0.382,-9,-4.5e-05
383,0.383,-9,-4.5e-05
384,0.384,-9,-4.5e-05
385,0.385,-10,-5e-05
386,0.386,-10,-5e-05
387,0.387,-10,-5e-05
388,0.388,-10,-5e-05
389,0.389,-10,-5e-05
390,0.39,-9,-4.5e-05
391,0.391,-8,-4e-05
392,0.392,-7,-3.5e-05
393,0.393,-7,-3.5e-05
394,0.394,-6,-3e-05
395,0.395,-6,-3e-05
396,0.396,-5,-2.5e-05
397,0.397,-5,-2.5e-05
398,0.398,-4,-2e-05
399,0.399,-3,-1.5e-05
400,0.4,-2,-1e-05
401,0.401,-2,-1e-05
402,0.402,-2,-1e-05
403,0.403,-2,-1e-05
404,0.404,-1,-5e-06
405,0.405,-1,-5e-06
406,0.406,-1,-5e-06
407,0.407,-1,-5e-06
408,0.408,-1,-5e-06
409,0.409,0,0.0
410,0.41,2,1e-05
411,0.411,3,1.5e-05
412,0.412,5,2.5e-05
413,0.413,5,2.5e-05
414,0.414,6,3e-05
415,0.415,6,3e-05
416,0.416,7,3.5e-05
417,0.417,6,3e-05
418,0.418,5,2.5e-05
419,0.419,4,2e-05
420,0.42,3,1.5e-05
421,0.421,2,1e-05
422,0.422,2,1e-05
423,0.423,1,5e-06
424,0.424,1,5e-06
425,0.425,0,0.0
426,0.426,0,0.0
427,0.427,0,0.0
428,0.428,0,0.0
429,0.429,-1,-5e-06
430,0.43,-1,-5e-06
431,0.431,-1,-5e-06
432,0.432,-1,-5e-06
433,0.433,-1,-5e-06
434,0.434,0,0.0
435,0.435,1,5e-06
436,0.436,2,1e-05
437,0.437,2,1e-05
438,0.438,3,1.5e-05
439,0.439,4,2e-05
440,0.44,5,2.5e-05
441,0.441,6,3e-05
442,0.442,7,3.5e-05
443,0.443,8,4e-05
444,0.444,9,4.5e-05
445,0.445,10,5e-05
446,0.446,11,5.5e-05
447,0.447,12,6e-05
448,0.448,14,7e-05
449,0.449,15,7.5e-05
450,0.45,16,8e-05
451,0.451,17,8.5e-05
452,0.452,19,9.5e-05
453,0.453,20,0.0001
454,0.454,22,0.00011
455,0.455,24,0.00012
456,0.456,26,0.00013
457,0.457,28,0.00014
458,0.458,30,0.00015
459,0.459,32,0.00016
460,0.46,34,0.00017
461,0.461,36,0.00018
462,0.462,37,0.000185
463,0.463,39,0.000195
464,0.464,40,0.0002
465,0.465,41,0.000205
466,0.466,41,0.000205
467,0.467,41,0.000205
468,0.468,42,0.00021
469,0.469,43,0.000215
470,0.47,44,0.00022
471,0.471,45,0.000225
472,0.472,46,0.00023
473,0.473,47,0.000235
474,0.474,49,0.000245
475,0.475,51,0.000255
476,0.476,52,0.00026
477,0.477,54,0.00027
478,0.478,55,0.000275
479,0.479,56,0.00028
480,0.48,57,0.000285
481,0.481,55,0.000275
482,0.482,54,0.00027
483,0.483,53,0.000265
484,0.484,52,0.00026
485,0.485,52,0.00026
486,0.486,53,0.000265
487,0.487,54,0.00027
488,0.488,55,0.000275
489,0.489,55,0.000275
490,0.49,55,0.000275
491,0.491,55,0.000275
492,0.492,56,0.00028
493,0.493,57,0.000285
494,0.494,59,0.000295
495,0.495,61,0.000305
496,0.496,62,0.00031
497,0.497,63,0.000315
498,0.498,64,0.00032
499,0.499,64,0.00032
500,0.5,65,0.000325
501,0.501,63,0.000315
502,0.502,61,0.000305
503,0.503,59,0.000295
504,0.504,58,0.00029
505,0.505,56,0.00028
506,0.506,54,0.00027
507,0.507,52,0.00026
508,0.508,51,0.000255
509,0.509,51,0.000255
510,0.51,51,0.000255
511,0.511,51,0.000255
512,0.512,52,0.00026
513,0.513,48,0.00024
514,0.514,45,0.000225
515,0.515,42,0.00021
516,0.516,39,0.000195
517,0.517,36,0.00018
518,0.518,34,0.00017
519,0.519,32,0.00016
520,0.52,30,0.00015
521,0.521,29,0.000145
522,0.522,28,0.00014
523,0.523,27,0.000135
524,0.524,26,0.00013
525,0.525,24,0.00012
526,0.526,23,0.000115
527,0.527,21,0.000105
528,0.528,20,0.0001
529,0.529,18,9e-05
530,0.53,17,8.5e-05
531,0.531,16,8e-05
532,0.532,15,7.5e-05
533,0.533,15,7.5e-05
534,0.534,15,7.5e-05
535,0.535,15,7.5e-05
536,0.536,15,7.5e-05
537,0.537,16,8e-05
538,0.538,17,8.5e-05
539,0.539,18,9e-05
540,0.54,19,9.5e-05
541,0.541,17,8.5e-05
542,0.542,16,8e-05
543,0.543,15,7.5e-05
544,0.544,14,7e-05
545,0.545,14,7e-05
546,0.546,15,7.5e-05
547,0.547,15,7.5e-05
548,0.548,16,8e-05
549,0.549,16,8e-05
550,0.55,17,8.5e-05
551,0.551,17,8.5e-05
552,0.552,18,9e-05
553,0.553,19,9.5e-05
554,0.554,21,0.000105
555,0.555,23,0.000115
556,0.556,24,0.00012
557,0.557,27,0.000135
558,0.558,29,0.000145
559,0.559,31,0.000155
560,0.56,33,0.000165
561,0.561,36,0.00018
562,0.562,39,0.000195
563,0.563,42,0.00021
564,0.564,44,0.00022
565,0.565,47,0.000235
566,0.566,49,0.000245
567,0.567,51,0.000255
568,0.568,53,0.000265
569,0.569,61,0.000305
570,0.57,69,0.000345
571,0.571,77,0.000385
572,0.572,85,0.000425
573,0.573,98,0.00049
574,0.574,110,0.00055
575,0.575,123,0.000615
576,0.576,135,0.000675
577,0.577,150,0.00075
578,0.578,165,0.000825
579,0.579,180,0.0009
580,0.58,195,0.000975
581,0.581,205,0.001025
582,0.582,215,0.001075
583,0.583,225,0.001125
584,0.584,235,0.001175
585,0.585,243,0.001215
586,0.586,251,0.001255
587,0.587,259,0.001295
588,0.588,267,0.001335
589,0.589,267,0.001335
590,0.59,267,0.001335
591,0.591,267,0.001335
592,0.592,267,0.001335
593,0.593,249,0.001245
594,0.594,232,0.00116
595,0.595,214,0.00107
596,0.596,196,0.00098
597,0.597,154,0.00077
598,0.598,111,0.000555
599,0.599,69,0.000345
600,0.6,26,0.00013
601,0.601,-16,-8e-05
602,0.602,-58,-0.00029
603,0.603,-100,-0.0005
604,0.604,-142,-0.00071
605,0.605,-165,-0.000825
606,0.606,-187,-0.000935
607,0.607,-209,-0.001045
608,0.608,-231,-0.001155
609,0.609,-236,-0.00118
610,0.61,-240,-0.0012
611,0.611,-244,-0.00122
612,0.612,-248,-0.00124
613,0.613,-245,-0.001225
614,0.614,-241,-0.001205
615,0.615,-237,-0.001185
616,0.616,-234,-0.00117
617,0.617,-226,-0.00113
618,0.618,-218,-0.00109
619,0.619,-210,-0.00105
620,0.62,-203,-0.001015
621,0.621,-191,-0.000955
622,0.622,-179,-0.000895
623,0.623,-167,-0.000835
624,0.624,-155,-0.000775
625,0.625,-143,-0.000715
626,0.626,-131,-0.000655
627,0.627,-120,-0.0006
628,0.628,-108,-0.00054
629,0.629,-96,-0.00048
630,0.63,-83,-0.000415
631,0.631,-71,-0.000355
632,0.632,-59,-0.000295
633,0.633,-49,-0.000245
634,0.634,-39,-0.000195
635,0.635,-29,-0.000145
636,0.636,-19,-9.5e-05
637,0.637,-15,-7.5e-05
638,0.638,-12,-6e-05
639,0.639,-9,-4.5e-05
640,0.64,-6,-3e-05
641,0.641,-3,-1.5e-05
642,0.642,0,0.0
643,0.643,3,1.5e-05
644,0.644,6,3e-05
645,0.645,8,4e-05
646,0.646,10,5e-05
647,0.647,12,6e-05
648,0.648,14,7e-05
649,0.649,14,7e-05
650,0.65,13,6.5e-05
651,0.651,12,6e-05
652,0.652,11,5.5e-05
653,0.653,10,5e-05
654,0.654,9,4.5e-05
655,0.655,8,4e-05
656,0.656,7,3.5e-05
657,0.657,6,3e-05
658,0.658,6,3e-05
659,0.659,5,2.5e-05
660,0.66,5,2.5e-05
661,0.661,7,3.5e-05
662,0.662,9,4.5e-05
663,0.663,11,5.5e-05
664,0.664,13,6.5e-05
665,0.665,13,6.5e-05
666,0.666,12,6e-05
667,0.667,11,5.5e-05
668,0.668,11,5.5e-05
669,0.669,9,4.5e-05
670,0.67,8,4e-05
671,0.671,6,3e-05
672,0.672,5,2.5e-05
673,0.673,5,2.5e-05
674,0.674,6,3e-05
675,0.675,7,3.5e-05
676,0.676,8,4e-05
677,0.677,9,4.5e-05
678,0.678,10,5e-05
679,0.679,12,6e-05
680,0.68,13,6.5e-05
681,0.681,15,7.5e-05
682,0.682,17,8.5e-05
683,0.683,19,9.5e-05
684,0.684,20,0.0001
685,0.685,19,9.5e-05
686,0.686,18,9e-05
687,0.687,16,8e-05
688,0.688,15,7.5e-05
689,0.689,13,6.5e-05
690,0.69,12,6e-05
691,0.691,10,5e-05
692,0.692,9,4.5e-05
693,0.693,8,4e-05
694,0.694,7,3.5e-05
695,0.695,6,3e-05
696,0.696,5,2.5e-05
697,0.697,6,3e-05
698,0.698,8,4e-05
699,0.699,10,5e-05
700,0.7,11,5.5e-05
701,0.701,11,5.5e-05
702,0.702,11,5.5e-05
703,0.703,10,5e-05
704,0.704,10,5e-05
705,0.705,9,4.5e-05
706,0.706,8,4e-05
707,0.707,7,3.5e-05
708,0.708,7,3.5e-05
709,0.709,8,4e-05
710,0.71,9,4.5e-05
711,0.711,10,5e-05
712,0.712,11,5.5e-05
713,0.713,9,4.5e-05
714,0.714,7,3.5e-05
715,0.715,4,2e-05
716,0.716,2,1e-05
717,0.717,1,5e-06
718,0.718,1,5e-06
719,0.719,1,5e-06
720,0.72,1,5e-06
721,0.721,2,1e-05
722,0.722,4,2e-05
723,0.723,6,3e-05
724,0.724,7,3.5e-05
725,0.725,7,3.5e-05
726,0.726,6,3e-05
727,0.727,5,2.5e-05
728,0.728,5,2.5e-05
729,0.729,5,2.5e-05
730,0.73,5,2.5e-05
731,0.731,5,2.5e-05
732,0.732,5,2.5e-05
733,0.733,2,1e-05
734,0.734,0,0.0
735,0.735,-3,-1.5e-05
736,0.736,-5,-2.5e-05
737,0.737,-5,-2.5e-05
738,0.738,-5,-2.5e-05
739,0.739,-5,-2.5e-05
740,0.74,-5,-2.5e-05
741,0.741,-5,-2.5e-05
742,0.742,-5,-2.5e-05
743,0.743,-5,-2.5e-05
744,0.744,-5,-2.5e-05
745,0.745,-7,-3.5e-05
746,0.746,-9,-4.5e-05
747,0.747,-11,-5.5e-05
748,0.748,-12,-6e-05
749,0.749,-12,-6e-05
750,0.75,-11,-5.5e-05
751,0.751,-10,-5e-05
752,0.752,-9,-4.5e-05
753,0.753,-9,-4.5e-05
754,0.754,-9,-4.5e-05
755,0.755,-9,-4.5e-05
756,0.756,-9,-4.5e-05
757,0.757,-10,-5e-05
758,0.758,-11,-5.5e-05
759,0.759,-12,-6e-05
760,0.76,-12,-6e-05
761,0.761,-13,-6.5e-05
762,0.762,-13,-6.5e-05
763,0.763,-13,-6.5e-05
764,0.764,-13,-6.5e-05
765,0.765,-13,-6.5e-05
766,0.766,-13,-6.5e-05
767,0.767,-13,-6.5e-05
768,0.768,-12,-6e-05
769,0.769,-11,-5.5e-05
770,0.77,-10,-5e-05
771,0.771,-8,-4e-05
772,0.772,-7,-3.5e-05
773,0.773,-9,-4.5e-05
774,0.774,-11,-5.5e-05
775,0.775,-14,-7e-05
776,0.776,-16,-8e-05
777,0.777,-20,-0.0001
778,0.778,-23,-0.000115
779,0.779,-26,-0.00013
780,0.78,-29,-0.000145
781,0.781,-31,-0.000155
782,0.782,-32,-0.00016
783,0.783,-34,-0.00017
784,0.784,-35,-0.000175
785,0.785,-36,-0.00018
786,0.786,-37,-0.000185
787,0.787,-38,-0.00019
788,0.788,-38,-0.00019
789,0.789,-39,-0.000195
790,0.79,-39,-0.000195
791,0.791,-39,-0.000195
792,0.792,-39,-0.000195
793,0.793,-40,-0.0002
794,0.794,-41,-0.000205
795,0.795,-42,-0.00021
796,0.796,-42,-0.00021
797,0.797,-44,-0.00022
798,0.798,-46,-0.00023
799,0.799,-48,-0.00024
800,0.8,-49,-0.000245
801,0.801,-50,-0.00025
802,0.802,-50,-0.00025
803,0.803,-51,-0.000255
804,0.804,-51,-0.000255
805,0.805,-51,-0.000255
806,0.806,-51,-0.000255
807,0.807,-51,-0.000255
808,0.808,-50,-0.00025
809,0.809,-50,-0.00025
810,0.81,-50,-0.00025
811,0.811,-50,-0.00025
812,0.812,-50,-0.00025
813,0.813,-53,-0.000265
814,0.814,-56,-0.00028
815,0.815,-59,-0.000295
816,0.816,-61,-0.000305
817,0.817,-64,-0.00032
818,0.818,-66,-0.00033
819,0.819,-69,-0.000345
820,0.82,-71,-0.000355
821,0.821,-72,-0.00036
822,0.822,-73,-0.000365
823,0.823,-74,-0.00037
824,0.824,-74,-0.00037
825,0.825,-76,-0.00038
826,0.826,-77,-0.000385
827,0.827,-78,-0.00039
828,0.828,-79,-0.000395
829,0.829,-81,-0.000405
830,0.83,-82,-0.00041
831,0.831,-84,-0.00042
832,0.832,-85,-0.000425
833,0.833,-87,-0.000435
834,0.834,-89,-0.000445
835,0.835,-91,-0.000455
836,0.836,-92,-0.00046
837,0.837,-93,-0.000465
838,0.838,-94,-0.00047
839,0.839,-95,-0.000475
840,0.84,-95,-0.000475
841,0.841,-95,-0.000475
842,0.842,-94,-0.00047
843,0.843,-94,-0.00047
844,0.844,-93,-0.000465
845,0.845,-95,-0.000475
846,0.846,-97,-0.000485
847,0.847,-99,-0.000495
848,0.848,-101,-0.000505
849,0.849,-100,-0.0005
850,0.85,-99,-0.000495
851,0.851,-97,-0.000485
852,0.852,-96,-0.00048
853,0.853,-95,-0.000475
854,0.854,-94,-0.00047
855,0.855,-93,-0.000465
856,0.856,-92,-0.00046
857,0.857,-93,-0.000465
858,0.858,-95,-0.000475
859,0.859,-97,-0.000485
860,0.86,-98,-0.00049
861,0.861,-99,-0.000495
862,0.862,-99,-0.000495
863,0.863,-100,-0.0005
864,0.864,-100,-0.0005
865,0.865,-100,-0.0005
866,0.866,-100,-0.0005
867,0.867,-100,-0.0005
868,0.868,-99,-0.000495
869,0.869,-100,-0.0005
870,0.87,-100,-0.0005
871,0.871,-101,-0.000505
872,0.872,-101,-0.000505
873,0.873,-102,-0.00051
874,0.874,-103,-0.000515
875,0.875,-104,-0.00052
876,0.876,-105,-0.000525
877,0.877,-103,-0.000515
878,0.878,-100,-0.0005
879,0.879,-97,-0.000485
880,0.88,-94,-0.00047
881,0.881,-93,-0.000465
882,0.882,-92,-0.00046
883,0.883,-91,-0.000455
884,0.884,-90,-0.00045
885,0.885,-88,-0.00044
886,0.886,-86,-0.00043
887,0.887,-84,-0.00042
888,0.888,-83,-0.000415
889,0.889,-80,-0.0004
890,0.89,-78,-0.00039
891,0.891,-76,-0.00038
892,0.892,-74,-0.00037
893,0.893,-73,-0.000365
894,0.894,-72,-0.00036
895,0.895,-71,-0.000355
896,0.896,-71,-0.000355
897,0.897,-66,-0.00033
898,0.898,-61,-0.000305
899,0.899,-56,-0.00028
900,0.9,-51,-0.000255
901,0.901,-47,-0.000235
902,0.902,-43,-0.000215
903,0.903,-39,-0.000195
904,0.904,-36,-0.00018
905,0.905,-33,-0.000165
906,0.906,-31,-0.000155
907,0.907,-29,-0.000145
908,0.908,-27,-0.000135
909,0.909,-24,-0.00012
910,0.91,-22,-0.00011
911,0.911,-20,-0.0001
912,0.912,-18,-9e-05
913,0.913,-16,-8e-05
914,0.914,-15,-7.5e-05
915,0.915,-14,-7e-05
916,0.916,-13,-6.5e-05
917,0.917,-11,-5.5e-05
918,0.918,-10,-5e-05
919,0.919,-8,-4e-05
920,0.92,-7,-3.5e-05
921,0.921,-3,-1.5e-05
922,0.922,0,0.0
923,0.923,3,1.5e-05
924,0.924,6,3e-05
925,0.925,10,5e-05
926,0.926,13,6.5e-05
927,0.927,16,8e-05
928,0.928,19,9.5e-05
929,0.929,21,0.000105
930,0.93,23,0.000115
931,0.931,25,0.000125
932,0.932,27,0.000135
933,0.933,28,0.00014
934,0.934,28,0.00014
935,0.935,28,0.00014
936,0.936,29,0.000145
937,0.937,28,0.00014
938,0.938,28,0.00014
939,0.939,28,0.00014
940,0.94,28,0.00014
941,0.941,31,0.000155
942,0.942,34,0.00017
943,0.943,37,0.000185
944,0.944,40,0.0002
945,0.945,41,0.000205
946,0.946,42,0.00021
947,0.947,43,0.000215
948,0.948,44,0.00022
949,0.949,44,0.00022
950,0.95,44,0.00022
951,0.951,44,0.00022
952,0.952,44,0.00022
953,0.953,44,0.00022
954,0.954,45,0.000225
955,0.955,45,0.000225
956,0.956,46,0.00023
957,0.957,46,0.00023
958,0.958,47,0.000235
959,0.959,48,0.00024
960,0.96,48,0.00024
961,0.961,47,0.000235
962,0.962,45,0.000225
963,0.963,43,0.000215
964,0.964,42,0.00021
965,0.965,41,0.000205
966,0.966,41,0.000205
967,0.967,41,0.000205
968,0.968,41,0.000205
969,0.969,42,0.00021
970,0.97,43,0.000215
971,0.971,44,0.00022
972,0.972,45,0.000225
973,0.973,46,0.00023
974,0.974,47,0.000235
975,0.975,48,0.00024
976,0.976,48,0.00024
977,0.977,49,0.000245
978,0.978,49,0.000245
979,0.979,49,0.000245
980,0.98,49,0.000245
981,0.981,50,0.00025
982,0.982,51,0.000255
983,0.983,52,0.00026
984,0.984,53,0.000265
985,0.985,53,0.000265
986,0.986,53,0.000265
987,0.987,52,0.00026
988,0.988,52,0.00026
989,0.989,51,0.000255
990,0.99,51,0.000255
991,0.991,50,0.00025
992,0.992,50,0.00025
993,0.993,49,0.000245
994,0.994,48,0.00024
995,0.995,47,0.000235
996,0.996,47,0.000235
997,0.997,47,0.000235
998,0.998,47,0.000235
999,0.999,47,0.000235
1000,1.0,48,0.00024
1001,1.001,48,0.00024
1002,1.002,49,0.000245
1003,1.003,49,0.000245
1004,1.004,50,0.00025
1005,1.005,49,0.000245
1006,1.006,48,0.00024
1007,1.007,47,0.000235
1008,1.008,47,0.000235
1009,1.009,45,0.000225
1010,1.01,43,0.000215
1011,1.011,41,0.000205
1012,1.012,40,0.0002
1013,1.013,39,0.000195
1014,1.014,38,0.00019
1015,1.015,37,0.000185
1016,1.016,37,0.000185
1017,1.017,36,0.00018
1018,1.018,36,0.00018
1019,1.019,35,0.000175
1020,1.02,35,0.000175
1021,1.021,36,0.00018
1022,1.022,37,0.000185
1023,1.023,38,0.00019
1024,1.024,39,0.000195
1025,1.025,40,0.0002
1026,1.026,40,0.0002
1027,1.027,40,0.0002
1028,1.028,41,0.000205
1029,1.029,41,0.000205
1030,1.03,42,0.00021
1031,1.031,43,0.000215
1032,1.032,44,0.00022
1033,1.033,43,0.000215
1034,1.034,42,0.00021
1035,1.035,40,0.0002
1036,1.036,39,0.000195
1037,1.037,39,0.000195
1038,1.038,40,0.0002
1039,1.039,40,0.0002
1040,1.04,41,0.000205
1041,1.041,42,0.00021
1042,1.042,43,0.000215
1043,1.043,44,0.00022
1044,1.044,45,0.000225
1045,1.045,45,0.000225
1046,1.046,44,0.00022
1047,1.047,43,0.000215
1048,1.048,42,0.00021
1049,1.049,40,0.0002
1050,1.05,39,0.000195
1051,1.051,38,0.00019
1052,1.052,37,0.000185
1053,1.053,35,0.000175
1054,1.054,34,0.00017
1055,1.055,32,0.00016
1056,1.056,31,0.000155
1057,1.057,32,0.00016
1058,1.058,33,0.000165
1059,1.059,35,0.000175
1060,1.06,36,0.00018
1061,1.061,37,0.000185
1062,1.062,37,0.000185
1063,1.063,37,0.000185
1064,1.064,38,0.00019
1065,1.065,36,0.00018
1066,1.066,35,0.000175
1067,1.067,34,0.00017
1068,1.068,33,0.000165
1069,1.069,35,0.000175
1070,1.07,37,0.000185
1071,1.071,39,0.000195
1072,1.072,41,0.000205
1073,1.073,48,0.00024
1074,1.074,54,0.00027
1075,1.075,61,0.000305
1076,1.076,67,0.000335
1077,1.077,80,0.0004
1078,1.078,94,0.00047
1079,1.079,107,0.000535
1080,1.08,121,0.000605
1081,1.081,139,0.000695
1082,1.082,157,0.000785
1083,1.083,175,0.000875
1084,1.084,193,0.000965
1085,1.085,206,0.00103
1086,1.086,218,0.00109
1087,1.087,231,0.001155
1088,1.088,244,0.00122
1089,1.089,250,0.00125
1090,1.09,257,0.001285
1091,1.091,263,0.001315
1092,1.092,269,0.001345
1093,1.093,259,0.001295
1094,1.094,248,0.00124
1095,1.095,236,0.00118
1096,1.096,225,0.001125
1097,1.097,190,0.00095
1098,1.098,154,0.00077
1099,1.099,118,0.00059
1100,1.1,82,0.00041
1101,1.101,38,0.00019
1102,1.102,-5,-2.5e-05
1103,1.103,-49,-0.000245
1104,1.104,-92,-0.00046
1105,1.105,-123,-0.000615
1106,1.106,-153,-0.000765
1107,1.107,-184,-0.00092
1108,1.108,-214,-0.00107
1109,1.109,-226,-0.00113
1110,1.11,-236,-0.00118
1111,1.111,-247,-0.001235
1112,1.112,-258,-0.00129
1113,1.113,-258,-0.00129
1114,1.114,-258,-0.00129
1115,1.115,-258,-0.00129
1116,1.116,-258,-0.00129
1117,1.117,-254,-0.00127
1118,1.118,-249,-0.001245
1119,1.119,-244,-0.00122
1120,1.12,-239,-0.001195
1121,1.121,-230,-0.00115
1122,1.122,-222,-0.00111
1123,1.123,-213,-0.001065
1124,1.124,-205,-0.001025
1125,1.125,-190,-0.00095
1126,1.126,-174,-0.00087
1127,1.127,-158,-0.00079
1128,1.128,-142,-0.00071
1129,1.129,-124,-0.00062
1130,1.13,-106,-0.00053
1131,1.131,-88,-0.00044
1132,1.132,-70,-0.00035
1133,1.133,-60,-0.0003
1134,1.134,-49,-0.000245
1135,1.135,-39,-0.000195
1136,1.136,-28,-0.00014
1137,1.137,-20,-0.0001
1138,1.138,-12,-6e-05
1139,1.139,-5,-2.5e-05
1140,1.14,3,1.5e-05
1141,1.141,8,4e-05
1142,1.142,12,6e-05
1143,1.143,17,8.5e-05
1144,1.144,21,0.000105
1145,1.145,24,0.00012
1146,1.146,27,0.000135
1147,1.147,30,0.00015
1148,1.148,33,0.000165
1149,1.149,34,0.00017
1150,1.15,35,0.000175
1151,1.151,36,0.00018
1152,1.152,37,0.000185
1153,1.153,37,0.000185
1154,1.154,36,0.00018
1155,1.155,35,0.000175
1156,1.156,34,0.00017
1157,1.157,35,0.000175
1158,1.158,37,0.000185
1159,1.159,39,0.000195
1160,1.16,40,0.0002
1161,1.161,41,0.000205
1162,1.162,42,0.00021
1163,1.163,42,0.00021
1164,1.164,43,0.000215
1165,1.165,44,0.00022
1166,1.166,46,0.00023
1167,1.167,48,0.00024
1168,1.168,50,0.00025
1169,1.169,53,0.000265
1170,1.17,55,0.000275
1171,1.171,57,0.000285
1172,1.172,59,0.000295
1173,1.173,59,0.000295
1174,1.174,59,0.000295
1175,1.175,59,0.000295
1176,1.176,59,0.000295
1177,1.177,59,0.000295
1178,1.178,59,0.000295
1179,1.179,59,0.000295
1180,1.18,59,0.000295
1181,1.181,59,0.000295
1182,1.182,60,0.0003
1183,1.183,61,0.000305
1184,1.184,62,0.00031
1185,1.185,63,0.000315
1186,1.186,64,0.00032
1187,1.187,64,0.00032
1188,1.188,65,0.000325
1189,1.189,64,0.00032
1190,1.19,64,0.00032
1191,1.191,64,0.00032
1192,1.192,64,0.00032
1193,1.193,63,0.000315
1194,1.194,63,0.000315
1195,1.195,62,0.00031
1196,1.196,62,0.00031
1197,1.197,59,0.000295
1198,1.198,57,0.000285
1199,1.199,55,0.000275
1200,1.2,53,0.000265
1201,1.201,53,0.000265
1202,1.202,54,0.00027
1203,1.203,55,0.000275
1204,1.204,56,0.00028
1205,1.205,57,0.000285
1206,1.206,57,0.000285
1207,1.207,57,0.000285
1208,1.208,57,0.000285
1209,1.209,58,0.00029
1210,1.21,59,0.000295
1211,1.211,61,0.000305
1212,1.212,62,0.00031
1213,1.213,62,0.00031
1214,1.214,62,0.00031
1215,1.215,61,0.000305
1216,1.216,61,0.000305
1217,1.217,61,0.000305
1218,1.218,61,0.000305
1219,1.219,61,0.000305
1220,1.22,62,0.00031
1221,1.221,62,0.00031
1222,1.222,62,0.00031
1223,1.223,62,0.00031
1224,1.224,63,0.000315
1225,1.225,63,0.000315
1226,1.226,63,0.000315
1227,1.227,63,0.000315
1228,1.228,63,0.000315
1229,1.229,61,0.000305
1230,1.23,60,0.0003
1231,1.231,58,0.00029
1232,1.232,57,0.000285
1233,1.233,57,0.000285
1234,1.234,58,0.00029
1235,1.235,59,0.000295
1236,1.236,59,0.000295
1237,1.237,60,0.0003
1238,1.238,60,0.0003
1239,1.239,60,0.0003
1240,1.24,60,0.0003
1241,1.241,60,0.0003
1242,1.242,60,0.0003
1243,1.243,60,0.0003
1244,1.244,61,0.000305
1245,1.245,61,0.000305
1246,1.246,61,0.000305
1247,1.247,61,0.000305
1248,1.248,61,0.000305
1249,1.249,58,0.00029
1250,1.25,56,0.00028
1251,1.251,54,0.00027
1252,1.252,52,0.00026
1253,1.253,51,0.000255
1254,1.254,51,0.000255
1255,1.255,51,0.000255
1256,1.256,51,0.000255
1257,1.257,51,0.000255
1258,1.258,52,0.00026
1259,1.259,52,0.00026
1260,1.26,52,0.00026
1261,1.261,52,0.00026
1262,1.262,52,0.00026
1263,1.263,51,0.000255
1264,1.264,51,0.000255
1265,1.265,49,0.000245
1266,1.266,48,0.00024
1267,1.267,46,0.00023
1268,1.268,45,0.000225
1269,1.269,43,0.000215
1270,1.27,42,0.00021
1271,1.271,40,0.0002
1272,1.272,39,0.000195
1273,1.273,38,0.00019
1274,1.274,37,0.000185
1275,1.275,36,0.00018
1276,1.276,36,0.00018
1277,1.277,34,0.00017
1278,1.278,32,0.00016
1279,1.279,30,0.00015
1280,1.28,28,0.00014
1281,1.281,26,0.00013
1282,1.282,24,0.00012
1283,1.283,22,0.00011
1284,1.284,20,0.0001
1285,1.285,19,9.5e-05
1286,1.286,18,9e-05
1287,1.287,17,8.5e-05
1288,1.288,17,8.5e-05
1289,1.289,15,7.5e-05
1290,1.29,13,6.5e-05
1291,1.291,11,5.5e-05
1292,1.292,10,5e-05
1293,1.293,7,3.5e-05
1294,1.294,5,2.5e-05
1295,1.295,3,1.5e-05
1296,1.296,1,5e-06
1297,1.297,-1,-5e-06
1298,1.298,-3,-1.5e-05
1299,1.299,-5,-2.5e-05
1300,1.3,-7,-3.5e-05
1301,1.301,-8,-4e-05
1302,1.302,-8,-4e-05
1303,1.303,-8,-4e-05
1304,1.304,-8,-4e-05
1305,1.305,-10,-5e-05
1306,1.306,-12,-6e-05
1307,1.307,-14,-7e-05
1308,1.308,-15,-7.5e-05
1309,1.309,-16,-8e-05
1310,1.31,-16,-8e-05
1311,1.311,-17,-8.5e-05
1312,1.312,-17,-8.5e-05
1313,1.313,-19,-9.5e-05
1314,1.314,-20,-0.0001
1315,1.315,-22,-0.00011
1316,1.316,-23,-0.000115
1317,1.317,-26,-0.00013
1318,1.318,-28,-0.00014
1319,1.319,-31,-0.000155
1320,1.32,-33,-0.000165
1321,1.321,-34,-0.00017
1322,1.322,-34,-0.00017
1323,1.323,-35,-0.000175
1324,1.324,-35,-0.000175
1325,1.325,-37,-0.000185
1326,1.326,-38,-0.00019
1327,1.327,-40,-0.0002
1328,1.328,-41,-0.000205
1329,1.329,-43,-0.000215
1330,1.33,-45,-0.000225
1331,1.331,-47,-0.000235
1332,1.332,-48,-0.00024
1333,1.333,-49,-0.000245
1334,1.334,-49,-0.000245
1335,1.335,-49,-0.000245
1336,1.336,-49,-0.000245
1337,1.337,-49,-0.000245
1338,1.338,-48,-0.00024
1339,1.339,-47,-0.000235
1340,1.34,-47,-0.000235
1341,1.341,-46,-0.00023
1342,1.342,-46,-0.00023
1343,1.343,-46,-0.00023
1344,1.344,-46,-0.00023
1345,1.345,-43,-0.000215
1346,1.346,-40,-0.0002
1347,1.347,-37,-0.000185
1348,1.348,-34,-0.00017
1349,1.349,-32,-0.00016
1350,1.35,-31,-0.000155
1351,1.351,-29,-0.000145
1352,1.352,-28,-0.00014
1353,1.353,-27,-0.000135
1354,1.354,-26,-0.00013
1355,1.355,-25,-0.000125
1356,1.356,-24,-0.00012
1357,1.357,-21,-0.000105
1358,1.358,-18,-9e-05
1359,1.359,-15,-7.5e-05
1360,1.36,-13,-6.5e-05
1361,1.361,-11,-5.5e-05
1362,1.362,-9,-4.5e-05
1363,1.363,-7,-3.5e-05
1364,1.364,-5,-2.5e-05
1365,1.365,-3,-1.5e-05
1366,1.366,-1,-5e-06
1367,1.367,1,5e-06
1368,1.368,2,1e-05
1369,1.369,3,1.5e-05
1370,1.37,4,2e-05
1371,1.371,5,2.5e-05
1372,1.372,5,2.5e-05
1373,1.373,6,3e-05
1374,1.374,7,3.5e-05
1375,1.375,8,4e-05
1376,1.376,8,4e-05
1377,1.377,11,5.5e-05
1378,1.378,13,6.5e-05
1379,1.379,15,7.5e-05
1380,1.38,17,8.5e-05
1381,1.381,20,0.0001
1382,1.382,23,0.000115
1383,1.383,26,0.00013
1384,1.384,28,0.00014
1385,1.385,31,0.000155
1386,1.386,33,0.000165
1387,1.387,36,0.00018
1388,1.388,38,0.00019
1389,1.389,40,0.0002
1390,1.39,42,0.00021
1391,1.391,44,0.00022
1392,1.392,46,0.00023
1393,1.393,47,0.000235
1394,1.394,47,0.000235
1395,1.395,48,0.00024
1396,1.396,48,0.00024
1397,1.397,49,0.000245
1398,1.398,50,0.00025
1399,1.399,51,0.000255
1400,1.4,51,0.000255
1401,1.401,52,0.00026
1402,1.402,53,0.000265
1403,1.403,54,0.00027
1404,1.404,54,0.00027
1405,1.405,55,0.000275
1406,1.406,55,0.000275
1407,1.407,55,0.000275
1408,1.408,55,0.000275
1409,1.409,55,0.000275
1410,1.41,56,0.00028
1411,1.411,57,0.000285
1412,1.412,57,0.000285
1413,1.413,58,0.00029
1414,1.414,58,0.00029
1415,1.415,58,0.00029
1416,1.416,59,0.000295
1417,1.417,59,0.000295
1418,1.418,59,0.000295
1419,1.419,59,0.000295
1420,1.42,60,0.0003
1421,1.421,59,0.000295
1422,1.422,58,0.00029
1423,1.423,57,0.000285
1424,1.424,56,0.00028
1425,1.425,55,0.000275
1426,1.426,55,0.000275
1427,1.427,55,0.000275
1428,1.428,55,0.000275
1429,1.429,55,0.000275
1430,1.43,55,0.000275
1431,1.431,56,0.00028
1432,1.432,56,0.00028
1433,1.433,57,0.000285
1434,1.434,57,0.000285
1435,1.435,57,0.000285
1436,1.436,58,0.00029
1437,1.437,58,0.00029
1438,1.438,59,0.000295
1439,1.439,60,0.0003
1440,1.44,60,0.0003
1441,1.441,61,0.000305
1442,1.442,61,0.000305
1443,1.443,61,0.000305
1444,1.444,61,0.000305
1445,1.445,59,0.000295
1446,1.446,58,0.00029
1447,1.447,57,0.000285
1448,1.448,56,0.00028
1449,1.449,54,0.00027
1450,1.45,52,0.00026
1451,1.451,50,0.00025
1452,1.452,48,0.00024
1453,1.453,47,0.000235
1454,1.454,47,0.000235
1455,1.455,47,0.000235
1456,1.456,47,0.000235
1457,1.457,45,0.000225
1458,1.458,44,0.00022
1459,1.459,43,0.000215
1460,1.46,42,0.00021
1461,1.461,42,0.00021
1462,1.462,43,0.000215
1463,1.463,44,0.00022
1464,1.464,44,0.00022
1465,1.465,44,0.00022
1466,1.466,44,0.00022
1467,1.467,43,0.000215
1468,1.468,43,0.000215
1469,1.469,43,0.000215
1470,1.47,43,0.000215
1471,1.471,43,0.000215
1472,1.472,43,0.000215
1473,1.473,43,0.000215
1474,1.474,43,0.000215
1475,1.475,44,0.00022
1476,1.476,44,0.00022
1477,1.477,44,0.00022
1478,1.478,43,0.000215
1479,1.479,42,0.00021
1480,1.48,42,0.00021
1481,1.481,42,0.00021
1482,1.482,42,0.00021
1483,1.483,42,0.00021
1484,1.484,42,0.00021
1485,1.485,42,0.00021
1486,1.486,43,0.000215
1487,1.487,44,0.00022
1488,1.488,45,0.000225
1489,1.489,44,0.00022
1490,1.49,43,0.000215
1491,1.491,42,0.00021
1492,1.492,41,0.000205
1493,1.493,40,0.0002
1494,1.494,39,0.000195
1495,1.495,38,0.00019
1496,1.496,37,0.000185
1497,1.497,36,0.00018
1498,1.498,35,0.000175
1499,1.499,34,0.00017
1500,1.5,33,0.000165
1501,1.501,30,0.00015
1502,1.502,28,0.00014
1503,1.503,25,0.000125
1504,1.504,23,0.000115
1505,1.505,22,0.00011
1506,1.506,22,0.00011
1507,1.507,21,0.000105
1508,1.508,21,0.000105
1509,1.509,20,0.0001
1510,1.51,19,9.5e-05
1511,1.511,18,9e-05
1512,1.512,18,9e-05
1513,1.513,18,9e-05
1514,1.514,18,9e-05
1515,1.515,18,9e-05
1516,1.516,18,9e-05
1517,1.517,17,8.5e-05
1518,1.518,17,8.5e-05
1519,1.519,16,8e-05
1520,1.52,16,8e-05
1521,1.521,16,8e-05
1522,1.522,16,8e-05
1523,1.523,16,8e-05
1524,1.524,17,8.5e-05
1525,1.525,17,8.5e-05
1526,1.526,18,9e-05
1527,1.527,19,9.5e-05
1528,1.528,20,0.0001
1529,1.529,20,0.0001
1530,1.53,19,9.5e-05
1531,1.531,18,9e-05
1532,1.532,17,8.5e-05
1533,1.533,15,7.5e-05
1534,1.534,14,7e-05
1535,1.535,13,6.5e-05
1536,1.536,12,6e-05
1537,1.537,11,5.5e-05
1538,1.538,11,5.5e-05
1539,1.539,10,5e-05
1540,1.54,10,5e-05
1541,1.541,10,5e-05
1542,1.542,10,5e-05
1543,1.543,10,5e-05
1544,1.544,11,5.5e-05
1545,1.545,11,5.5e-05
1546,1.546,11,5.5e-05
1547,1.547,11,5.5e-05
1548,1.548,12,6e-05
1549,1.549,11,5.5e-05
1550,1.55,10,5e-05
1551,1.551,9,4.5e-05
1552,1.552,9,4.5e-05
1553,1.553,9,4.5e-05
1554,1.554,9,4.5e-05
1555,1.555,9,4.5e-05
1556,1.556,9,4.5e-05
1557,1.557,9,4.5e-05
1558,1.558,10,5e-05
1559,1.559,11,5.5e-05
1560,1.56,11,5.5e-05
1561,1.561,12,6e-05
1562,1.562,12,6e-05
1563,1.563,12,6e-05
1564,1.564,13,6.5e-05
1565,1.565,12,6e-05
1566,1.566,12,6e-05
1567,1.567,11,5.5e-05
1568,1.568,11,5.5e-05
1569,1.569,12,6e-05
1570,1.57,14,7e-05
1571,1.571,16,8e-05
1572,1.572,17,8.5e-05
1573,1.573,17,8.5e-05
1574,1.574,17,8.5e-05
1575,1.575,17,8.5e-05
1576,1.576,17,8.5e-05
1577,1.577,17,8.5e-05
1578,1.578,17,8.5e-05
1579,1.579,17,8.5e-05
1580,1.58,17,8.5e-05
1581,1.581,17,8.5e-05
1582,1.582,18,9e-05
1583,1.583,19,9.5e-05
1584,1.584,20,0.0001
1585,1.585,21,0.000105
1586,1.586,22,0.00011
1587,1.587,23,0.000115
1588,1.588,23,0.000115
1589,1.589,24,0.00012
1590,1.59,24,0.00012
1591,1.591,24,0.00012
1592,1.592,25,0.000125
1593,1.593,25,0.000125
1594,1.594,26,0.00013
1595,1.595,27,0.000135
1596,1.596,28,0.00014
1597,1.597,29,0.000145
1598,1.598,30,0.00015
1599,1.599,31,0.000155
1600,1.6,32,0.00016
1601,1.601,33,0.000165
1602,1.602,33,0.000165
1603,1.603,33,0.000165
1604,1.604,33,0.000165
1605,1.605,34,0.00017
1606,1.606,35,0.000175
1607,1.607,36,0.00018
1608,1.608,37,0.000185
1609,1.609,38,0.00019
1610,1.61,38,0.00019
1611,1.611,38,0.00019
1612,1.612,38,0.00019
1613,1.613,38,0.00019
1614,1.614,38,0.00019
1615,1.615,39,0.000195
1616,1.616,39,0.000195
1617,1.617,39,0.000195
1618,1.618,39,0.000195
1619,1.619,38,0.00019
1620,1.62,38,0.00019
1621,1.621,38,0.00019
1622,1.622,38,0.00019
1623,1.623,38,0.00019
1624,1.624,38,0.00019
1625,1.625,37,0.000185
1626,1.626,36,0.00018
1627,1.627,35,0.000175
1628,1.628,35,0.000175
1629,1.629,36,0.00018
1630,1.63,37,0.000185
1631,1.631,38,0.00019
1632,1.632,39,0.000195
1633,1.633,38,0.00019
1634,1.634,36,0.00018
1635,1.635,34,0.00017
1636,1.636,32,0.00016
1637,1.637,30,0.00015
1638,1.638,28,0.00014
1639,1.639,26,0.00013
1640,1.64,25,0.000125
1641,1.641,25,0.000125
1642,1.642,25,0.000125
1643,1.643,25,0.000125
1644,1.644,26,0.00013
1645,1.645,24,0.00012
1646,1.646,22,0.00011
1647,1.647,20,0.0001
1648,1.648,18,9e-05
1649,1.649,17,8.5e-05
1650,1.65,17,8.5e-05
1651,1.651,17,8.5e-05
1652,1.652,17,8.5e-05
1653,1.653,17,8.5e-05
1654,1.654,18,9e-05
1655,1.655,19,9.5e-05
1656,1.656,19,9.5e-05
1657,1.657,19,9.5e-05
1658,1.658,18,9e-05
1659,1.659,17,8.5e-05
1660,1.66,16,8e-05
1661,1.661,16,8e-05
1662,1.662,17,8.5e-05
1663,1.663,18,9e-05
1664,1.664,18,9e-05
1665,1.665,19,9.5e-05
1666,1.666,19,9.5e-05
1667,1.667,19,9.5e-05
1668,1.668,19,9.5e-05
1669,1.669,18,9e-05
1670,1.67,18,9e-05
1671,1.671,17,8.5e-05
1672,1.672,17,8.5e-05
1673,1.673,16,8e-05
1674,1.674,16,8e-05
1675,1.675,15,7.5e-05
1676,1.676,15,7.5e-05
1677,1.677,14,7e-05
1678,1.678,13,6.5e-05
1679,1.679,12,6e-05
1680,1.68,12,6e-05
1681,1.681,10,5e-05
1682,1.682,9,4.5e-05
1683,1.683,7,3.5e-05
1684,1.684,6,3e-05
1685,1.685,5,2.5e-05
1686,1.686,4,2e-05
1687,1.687,3,1.5e-05
1688,1.688,3,1.5e-05
1689,1.689,3,1.5e-05
1690,1.69,3,1.5e-05
1691,1.691,3,1.5e-05
1692,1.692,4,2e-05
1693,1.693,5,2.5e-05
1694,1.694,6,3e-05
1695,1.695,7,3.5e-05
1696,1.696,8,4e-05
1697,1.697,9,4.5e-05
1698,1.698,9,4.5e-05
1699,1.699,9,4.5e-05
1700,1.7,9,4.5e-05
1701,1.701,9,4.5e-05
1702,1.702,10,5e-05
1703,1.703,11,5.5e-05
1704,1.704,12,6e-05
1705,1.705,13,6.5e-05
1706,1.706,13,6.5e-05
1707,1.707,13,6.5e-05
1708,1.708,14,7e-05
1709,1.709,14,7e-05
1710,1.71,15,7.5e-05
1711,1.711,16,8e-05
1712,1.712,16,8e-05
1713,1.713,18,9e-05
1714,1.714,19,9.5e-05
1715,1.715,20,0.0001
1716,1.716,21,0.000105
1717,1.717,21,0.000105
1718,1.718,21,0.000105
1719,1.719,20,0.0001
1720,1.72,20,0.0001
1721,1.721,20,0.0001
1722,1.722,20,0.0001
1723,1.723,21,0.000105
1724,1.724,21,0.000105
1725,1.725,19,9.5e-05
1726,1.726,17,8.5e-05
1727,1.727,15,7.5e-05
1728,1.728,13,6.5e-05
1729,1.729,12,6e-05
1730,1.73,12,6e-05
1731,1.731,11,5.5e-05
1732,1.732,11,5.5e-05
1733,1.733,10,5e-05
1734,1.734,10,5e-05
1735,1.735,9,4.5e-05
1736,1.736,9,4.5e-05
1737,1.737,8,4e-05
1738,1.738,7,3.5e-05
1739,1.739,6,3e-05
1740,1.74,5,2.5e-05
1741,1.741,5,2.5e-05
1742,1.742,5,2.5e-05
1743,1.743,6,3e-05
1744,1.744,6,3e-05
1745,1.745,7,3.5e-05
1746,1.746,7,3.5e-05
1747,1.747,8,4e-05
1748,1.748,8,4e-05
1749,1.749,9,4.5e-05
1750,1.75,9,4.5e-05
1751,1.751,9,4.5e-05
1752,1.752,9,4.5e-05
1753,1.753,9,4.5e-05
1754,1.754,9,4.5e-05
1755,1.755,9,4.5e-05
1756,1.756,9,4.5e-05
1757,1.757,8,4e-05
1758,1.758,8,4e-05
1759,1.759,7,3.5e-05
1760,1.76,7,3.5e-05
1761,1.761,7,3.5e-05
1762,1.762,7,3.5e-05
1763,1.763,8,4e-05
1764,1.764,8,4e-05
1765,1.765,8,4e-05
1766,1.766,8,4e-05
1767,1.767,7,3.5e-05
1768,1.768,7,3.5e-05
1769,1.769,6,3e-05
1770,1.77,6,3e-05
1771,1.771,5,2.5e-05
1772,1.772,5,2.5e-05
1773,1.773,5,2.5e-05
1774,1.774,5,2.5e-05
1775,1.775,5,2.5e-05
1776,1.776,5,2.5e-05
1777,1.777,5,2.5e-05
1778,1.778,5,2.5e-05
1779,1.779,5,2.5e-05
1780,1.78,5,2.5e-05
1781,1.781,7,3.5e-05
1782,1.782,11,5.5e-05
1783,1.783,14,7e-05
1784,1.784,17,8.5e-05
1785,1.785,18,9e-05
1786,1.786,19,9.5e-05
1787,1.787,20,0.0001
1788,1.788,20,0.0001
1789,1.789,21,0.000105
1790,1.79,22,0.00011
1791,1.791,23,0.000115
1792,1.792,23,0.000115
1793,1.793,24,0.00012
1794,1.794,24,0.00012
1795,1.795,25,0.000125
1796,1.796,25,0.000125
1797,1.797,26,0.00013
1798,1.798,27,0.000135
1799,1.799,28,0.00014
1800,1.8,28,0.00014
1801,1.801,29,0.000145
1802,1.802,30,0.00015
1803,1.803,31,0.000155
1804,1.804,32,0.00016
1805,1.805,35,0.000175
1806,1.806,37,0.000185
1807,1.807,40,0.0002
1808,1.808,42,0.00021
1809,1.809,43,0.000215
1810,1.81,44,0.00022
1811,1.811,45,0.000225
1812,1.812,45,0.000225
1813,1.813,45,0.000225
1814,1.814,45,0.000225
1815,1.815,44,0.00022
1816,1.816,44,0.00022
1817,1.817,44,0.00022
1818,1.818,44,0.00022
1819,1.819,44,0.00022
1820,1.82,45,0.000225
1821,1.821,44,0.00022
1822,1.822,44,0.00022
1823,1.823,44,0.00022
1824,1.824,44,0.00022
1825,1.825,43,0.000215
1826,1.826,43,0.000215
1827,1.827,43,0.000215
1828,1.828,43,0.000215
1829,1.829,41,0.000205
1830,1.83,39,0.000195
1831,1.831,37,0.000185
1832,1.832,35,0.000175
1833,1.833,32,0.00016
1834,1.834,30,0.00015
1835,1.835,28,0.00014
1836,1.836,26,0.00013
1837,1.837,24,0.00012
1838,1.838,23,0.000115
1839,1.839,21,0.000105
1840,1.84,20,0.0001
1841,1.841,16,8e-05
1842,1.842,13,6.5e-05
1843,1.843,9,4.5e-05
1844,1.844,6,3e-05
1845,1.845,5,2.5e-05
1846,1.846,4,2e-05
1847,1.847,3,1.5e-05
1848,1.848,3,1.5e-05
1849,1.849,1,5e-06
1850,1.85,-1,-5e-06
1851,1.851,-3,-1.5e-05
1852,1.852,-5,-2.5e-05
1853,1.853,-8,-4e-05
1854,1.854,-10,-5e-05
1855,1.855,-12,-6e-05
1856,1.856,-14,-7e-05
1857,1.857,-15,-7.5e-05
1858,1.858,-15,-7.5e-05
1859,1.859,-15,-7.5e-05
1860,1.86,-15,-7.5e-05
1861,1.861,-17,-8.5e-05
1862,1.862,-19,-9.5e-05
1863,1.863,-21,-0.000105
1864,1.864,-22,-0.00011
1865,1.865,-24,-0.00012
1866,1.866,-25,-0.000125
1867,1.867,-26,-0.00013
1868,1.868,-27,-0.000135
1869,1.869,-26,-0.00013
1870,1.87,-25,-0.000125
1871,1.871,-24,-0.00012
1872,1.872,-23,-0.000115
1873,1.873,-22,-0.00011
1874,1.874,-22,-0.00011
1875,1.875,-21,-0.000105
1876,1.876,-21,-0.000105
1877,1.877,-20,-0.0001
1878,1.878,-20,-0.0001
1879,1.879,-20,-0.0001
1880,1.88,-20,-0.0001
1881,1.881,-20,-0.0001
1882,1.882,-19,-9.5e-05
1883,1.883,-18,-9e-05
1884,1.884,-18,-9e-05
1885,1.885,-13,-6.5e-05
1886,1.886,-8,-4e-05
1887,1.887,-3,-1.5e-05
1888,1.888,2,1e-05
1889,1.889,6,3e-05
1890,1.89,10,5e-05
1891,1.891,13,6.5e-05
1892,1.892,17,8.5e-05
1893,1.893,21,0.000105
1894,1.894,25,0.000125
1895,1.895,28,0.00014
1896,1.896,32,0.00016
1897,1.897,41,0.000205
1898,1.898,51,0.000255
1899,1.899,60,0.0003
1900,1.9,70,0.00035
1901,1.901,83,0.000415
1902,1.902,98,0.00049
1903,1.903,112,0.00056
1904,1.904,126,0.00063
1905,1.905,137,0.000685
1906,1.906,148,0.00074
1907,1.907,159,0.000795
1908,1.908,170,0.00085
1909,1.909,177,0.000885
1910,1.91,182,0.00091
1911,1.911,188,0.00094
1912,1.912,194,0.00097
1913,1.913,197,0.000985
1914,1.914,199,0.000995
1915,1.915,202,0.00101
1916,1.916,204,0.00102
1917,1.917,198,0.00099
1918,1.918,191,0.000955
1919,1.919,184,0.00092
1920,1.92,177,0.000885
1921,1.921,149,0.000745
1922,1.922,119,0.000595
1923,1.923,89,0.000445
1924,1.924,59,0.000295
1925,1.925,16,8e-05
1926,1.926,-29,-0.000145
1927,1.927,-74,-0.00037
1928,1.928,-119,-0.000595
1929,1.929,-152,-0.00076
1930,1.93,-183,-0.000915
1931,1.931,-214,-0.00107
1932,1.932,-245,-0.001225
1933,1.933,-260,-0.0013
1934,1.934,-273,-0.001365
1935,1.935,-285,-0.001425
1936,1.936,-298,-0.00149
1937,1.937,-298,-0.00149
1938,1.938,-296,-0.00148
1939,1.939,-294,-0.00147
1940,1.94,-293,-0.001465
1941,1.941,-285,-0.001425
1942,1.942,-277,-0.001385
1943,1.943,-269,-0.001345
1944,1.944,-261,-0.001305
1945,1.945,-250,-0.00125
1946,1.946,-238,-0.00119
1947,1.947,-226,-0.00113
1948,1.948,-214,-0.00107
1949,1.949,-200,-0.001
1950,1.95,-186,-0.00093
1951,1.951,-172,-0.00086
1952,1.952,-158,-0.00079
1953,1.953,-146,-0.00073
1954,1.954,-135,-0.000675
1955,1.955,-124,-0.00062
1956,1.956,-113,-0.000565
1957,1.957,-105,-0.000525
1958,1.958,-98,-0.00049
1959,1.959,-91,-0.000455
1960,1.96,-84,-0.00042
1961,1.961,-80,-0.0004
1962,1.962,-76,-0.00038
1963,1.963,-72,-0.00036
1964,1.964,-68,-0.00034
1965,1.965,-64,-0.00032
1966,1.966,-60,-0.0003
1967,1.967,-56,-0.00028
1968,1.968,-52,-0.00026
1969,1.969,-51,-0.000255
1970,1.97,-51,-0.000255
1971,1.971,-50,-0.00025
1972,1.972,-50,-0.00025
1973,1.973,-49,-0.000245
1974,1.974,-48,-0.00024
1975,1.975,-47,-0.000235
1976,1.976,-46,-0.00023
1977,1.977,-44,-0.00022
1978,1.978,-43,-0.000215
1979,1.979,-41,-0.000205
1980,1.98,-40,-0.0002
1981,1.981,-38,-0.00019
1982,1.982,-37,-0.000185
1983,1.983,-36,-0.00018
1984,1.984,-35,-0.000175
1985,1.985,-35,-0.000175
1986,1.986,-35,-0.000175
1987,1.987,-35,-0.000175
1988,1.988,-35,-0.000175
1989,1.989,-35,-0.000175
1990,1.99,-35,-0.000175
1991,1.991,-34,-0.00017
1992,1.992,-34,-0.00017
1993,1.993,-35,-0.000175
1994,1.994,-36,-0.00018
1995,1.995,-37,-0.000185
1996,1.996,-38,-0.00019
1997,1.997,-38,-0.00019
1998,1.998,-38,-0.00019
1999,1.999,-38,-0.00019
2000,2.0,-38,-0.00019
2001,2.001,-38,-0.00019
2002,2.002,-38,-0.00019
2003,2.003,-38,-0.00019
2004,2.004,-37,-0.000185
2005,2.005,-37,-0.000185
2006,2.006,-37,-0.000185
2007,2.007,-37,-0.000185
2008,2.008,-36,-0.00018
2009,2.009,-36,-0.00018
2010,2.01,-36,-0.00018
2011,2.011,-35,-0.000175
2012,2.012,-35,-0.000175
2013,2.013,-34,-0.00017
2014,2.014,-33,-0.000165
2015,2.015,-32,-0.00016
2016,2.016,-31,-0.000155
2017,2.017,-31,-0.000155
2018,2.018,-31,-0.000155
2019,2.019,-31,-0.000155
2020,2.02,-31,-0.000155
2021,2.021,-31,-0.000155
2022,2.022,-30,-0.00015
2023,2.023,-29,-0.000145
2024,2.024,-29,-0.000145
2025,2.025,-29,-0.000145
2026,2.026,-30,-0.00015
2027,2.027,-31,-0.000155
2028,2.028,-31,-0.000155
2029,2.029,-32,-0.00016
2030,2.03,-33,-0.000165
2031,2.031,-34,-0.00017
2032,2.032,-35,-0.000175
2033,2.033,-35,-0.000175
2034,2.034,-35,-0.000175
2035,2.035,-35,-0.000175
2036,2.036,-35,-0.000175
2037,2.037,-35,-0.000175
2038,2.038,-35,-0.000175
2039,2.039,-35,-0.000175
2040,2.04,-34,-0.00017
2041,2.041,-36,-0.00018
2042,2.042,-37,-0.000185
2043,2.043,-38,-0.00019
2044,2.044,-39,-0.000195
2045,2.045,-39,-0.000195
2046,2.046,-39,-0.000195
2047,2.047,-39,-0.000195
2048,2.048,-39,-0.000195
2049,2.049,-40,-0.0002
2050,2.05,-40,-0.0002
2051,2.051,-40,-0.0002
2052,2.052,-40,-0.0002
2053,2.053,-41,-0.000205
2054,2.054,-42,-0.00021
2055,2.055,-43,-0.000215
2056,2.056,-43,-0.000215
2057,2.057,-44,-0.00022
2058,2.058,-44,-0.00022
2059,2.059,-44,-0.00022
2060,2.06,-44,-0.00022
2061,2.061,-46,-0.00023
2062,2.062,-47,-0.000235
2063,2.063,-49,-0.000245
2064,2.064,-50,-0.00025
2065,2.065,-50,-0.00025
2066,2.066,-49,-0.000245
2067,2.067,-48,-0.00024
2068,2.068,-48,-0.00024
2069,2.069,-47,-0.000235
2070,2.07,-46,-0.00023
2071,2.071,-45,-0.000225
2072,2.072,-45,-0.000225
2073,2.073,-45,-0.000225
2074,2.074,-45,-0.000225
2075,2.075,-46,-0.00023
2076,2.076,-46,-0.00023
2077,2.077,-48,-0.00024
2078,2.078,-49,-0.000245
2079,2.079,-51,-0.000255
2080,2.08,-52,-0.00026
2081,2.081,-54,-0.00027
2082,2.082,-56,-0.00028
2083,2.083,-58,-0.00029
2084,2.084,-59,-0.000295
2085,2.085,-60,-0.0003
2086,2.086,-60,-0.0003
2087,2.087,-60,-0.0003
2088,2.088,-60,-0.0003
2089,2.089,-62,-0.00031
2090,2.09,-63,-0.000315
2091,2.091,-65,-0.000325
2092,2.092,-66,-0.00033
2093,2.093,-67,-0.000335
2094,2.094,-68,-0.00034
2095,2.095,-69,-0.000345
2096,2.096,-69,-0.000345
2097,2.097,-70,-0.00035
2098,2.098,-71,-0.000355
2099,2.099,-72,-0.00036
2100,2.1,-72,-0.00036
2101,2.101,-74,-0.00037
2102,2.102,-76,-0.00038
2103,2.103,-78,-0.00039
2104,2.104,-80,-0.0004
2105,2.105,-82,-0.00041
2106,2.106,-83,-0.000415
2107,2.107,-84,-0.00042
2108,2.108,-85,-0.000425
2109,2.109,-86,-0.00043
2110,2.11,-86,-0.00043
2111,2.111,-86,-0.00043
2112,2.112,-86,-0.00043
2113,2.113,-88,-0.00044
2114,2.114,-89,-0.000445
2115,2.115,-91,-0.000455
2116,2.116,-92,-0.00046
2117,2.117,-92,-0.00046
2118,2.118,-92,-0.00046
2119,2.119,-91,-0.000455
2120,2.12,-91,-0.000455
2121,2.121,-91,-0.000455
2122,2.122,-92,-0.00046
2123,2.123,-93,-0.000465
2124,2.124,-93,-0.000465
2125,2.125,-94,-0.00047
2126,2.126,-94,-0.00047
2127,2.127,-95,-0.000475
2128,2.128,-95,-0.000475
2129,2.129,-98,-0.00049
2130,2.13,-101,-0.000505
2131,2.131,-104,-0.00052
2132,2.132,-107,-0.000535
2133,2.133,-109,-0.000545
2134,2.134,-110,-0.00055
2135,2.135,-112,-0.00056
2136,2.136,-113,-0.000565
2137,2.137,-115,-0.000575
2138,2.138,-117,-0.000585
2139,2.139,-119,-0.000595
2140,2.14,-121,-0.000605
2141,2.141,-121,-0.000605
2142,2.142,-121,-0.000605
2143,2.143,-121,-0.000605
2144,2.144,-120,-0.0006
2145,2.145,-121,-0.000605
2146,2.146,-121,-0.000605
2147,2.147,-121,-0.000605
2148,2.148,-121,-0.000605
2149,2.149,-123,-0.000615
2150,2.15,-124,-0.00062
2151,2.151,-126,-0.00063
2152,2.152,-127,-0.000635
2153,2.153,-128,-0.00064
2154,2.154,-128,-0.00064
2155,2.155,-129,-0.000645
2156,2.156,-129,-0.000645
2157,2.157,-130,-0.00065
2158,2.158,-131,-0.000655
2159,2.159,-132,-0.00066
2160,2.16,-133,-0.000665
2161,2.161,-133,-0.000665
2162,2.162,-133,-0.000665
2163,2.163,-132,-0.00066
2164,2.164,-132,-0.00066
2165,2.165,-132,-0.00066
2166,2.166,-133,-0.000665
2167,2.167,-134,-0.00067
2168,2.168,-135,-0.000675
2169,2.169,-136,-0.00068
2170,2.17,-137,-0.000685
2171,2.171,-138,-0.00069
2172,2.172,-139,-0.000695
2173,2.173,-141,-0.000705
2174,2.174,-142,-0.00071
2175,2.175,-143,-0.000715
2176,2.176,-144,-0.00072
2177,2.177,-145,-0.000725
2178,2.178,-145,-0.000725
2179,2.179,-146,-0.00073
2180,2.18,-146,-0.00073
2181,2.181,-148,-0.00074
2182,2.182,-150,-0.00075
2183,2.183,-152,-0.00076
2184,2.184,-153,-0.000765
2185,2.185,-154,-0.00077
2186,2.186,-154,-0.00077
2187,2.187,-154,-0.00077
2188,2.188,-154,-0.00077
2189,2.189,-156,-0.00078
2190,2.19,-158,-0.00079
2191,2.191,-160,-0.0008
2192,2.192,-161,-0.000805
2193,2.193,-161,-0.000805
2194,2.194,-161,-0.000805
2195,2.195,-161,-0.000805
2196,2.196,-161,-0.000805
2197,2.197,-161,-0.000805
2198,2.198,-161,-0.000805
2199,2.199,-160,-0.0008
2200,2.2,-160,-0.0008
2201,2.201,-158,-0.00079
2202,2.202,-157,-0.000785
2203,2.203,-156,-0.00078
2204,2.204,-155,-0.000775
2205,2.205,-154,-0.00077
2206,2.206,-154,-0.00077
2207,2.207,-153,-0.000765
2208,2.208,-153,-0.000765
2209,2.209,-151,-0.000755
2210,2.21,-150,-0.00075
2211,2.211,-148,-0.00074
2212,2.212,-147,-0.000735
2213,2.213,-145,-0.000725
2214,2.214,-144,-0.00072
2215,2.215,-143,-0.000715
2216,2.216,-142,-0.00071
2217,2.217,-140,-0.0007
2218,2.218,-139,-0.000695
2219,2.219,-137,-0.000685
2220,2.22,-136,-0.00068
2221,2.221,-134,-0.00067
2222,2.222,-133,-0.000665
2223,2.223,-131,-0.000655
2224,2.224,-130,-0.00065
2225,2.225,-128,-0.00064
2226,2.226,-126,-0.00063
2227,2.227,-124,-0.00062
2228,2.228,-123,-0.000615
2229,2.229,-121,-0.000605
2230,2.23,-119,-0.000595
2231,2.231,-117,-0.000585
2232,2.232,-115,-0.000575
2233,2.233,-112,-0.00056
2234,2.234,-110,-0.00055
2235,2.235,-107,-0.000535
2236,2.236,-105,-0.000525
2237,2.237,-103,-0.000515
2238,2.238,-102,-0.00051
2239,2.239,-101,-0.000505
2240,2.24,-100,-0.0005
2241,2.241,-98,-0.00049
2242,2.242,-97,-0.000485
2243,2.243,-95,-0.000475
2244,2.244,-94,-0.00047
2245,2.245,-91,-0.000455
2246,2.246,-88,-0.00044
2247,2.247,-86,-0.00043
2248,2.248,-83,-0.000415
2249,2.249,-80,-0.0004
2250,2.25,-77,-0.000385
2251,2.251,-75,-0.000375
2252,2.252,-72,-0.00036
2253,2.253,-69,-0.000345
2254,2.254,-67,-0.000335
2255,2.255,-65,-0.000325
2256,2.256,-63,-0.000315
2257,2.257,-60,-0.0003
2258,2.258,-57,-0.000285
2259,2.259,-55,-0.000275
2260,2.26,-52,-0.00026
2261,2.261,-51,-0.000255
2262,2.262,-51,-0.000255
2263,2.263,-50,-0.00025
2264,2.264,-50,-0.00025
2265,2.265,-49,-0.000245
2266,2.266,-48,-0.00024
2267,2.267,-47,-0.000235
2268,2.268,-46,-0.00023
2269,2.269,-45,-0.000225
2270,2.27,-45,-0.000225
2271,2.271,-44,-0.00022
2272,2.272,-44,-0.00022
2273,2.273,-43,-0.000215
2274,2.274,-42,-0.00021
2275,2.275,-41,-0.000205
2276,2.276,-40,-0.0002
2277,2.277,-38,-0.00019
2278,2.278,-37,-0.000185
2279,2.279,-35,-0.000175
2280,2.28,-34,-0.00017
2281,2.281,-32,-0.00016
2282,2.282,-31,-0.000155
2283,2.283,-29,-0.000145
2284,2.284,-28,-0.00014
2285,2.285,-26,-0.00013
2286,2.286,-24,-0.00012
2287,2.287,-22,-0.00011
2288,2.288,-21,-0.000105
2289,2.289,-20,-0.0001
2290,2.29,-20,-0.0001
2291,2.291,-19,-9.5e-05
2292,2.292,-19,-9.5e-05
2293,2.293,-18,-9e-05
2294,2.294,-17,-8.5e-05
2295,2.295,-16,-8e-05
2296,2.296,-15,-7.5e-05
2297,2.297,-13,-6.5e-05
2298,2.298,-12,-6e-05
2299,2.299,-10,-5e-05
2300,2.3,-9,-4.5e-05
2301,2.301,-8,-4e-05
2302,2.302,-7,-3.5e-05
2303,2.303,-6,-3e-05
2304,2.304,-6,-3e-05
2305,2.305,-5,-2.5e-05
2306,2.306,-5,-2.5e-05
2307,2.307,-5,-2.5e-05
2308,2.308,-5,-2.5e-05
2309,2.309,-5,-2.5e-05
2310,2.31,-4,-2e-05
2311,2.311,-3,-1.5e-05
2312,2.312,-3,-1.5e-05
2313,2.313,-3,-1.5e-05
2314,2.314,-3,-1.5e-05
2315,2.315,-4,-2e-05
2316,2.316,-4,-2e-05
2317,2.317,-4,-2e-05
2318,2.318,-4,-2e-05
2319,2.319,-4,-2e-05
2320,2.32,-3,-1.5e-05
2321,2.321,-3,-1.5e-05
2322,2.322,-3,-1.5e-05
2323,2.323,-3,-1.5e-05
2324,2.324,-2,-1e-05
2325,2.325,-1,-5e-06
2326,2.326,0,0.0
2327,2.327,2,1e-05
2328,2.328,3,1.5e-05
2329,2.329,4,2e-05
2330,2.33,4,2e-05
2331,2.331,4,2e-05
2332,2.332,5,2.5e-05
2333,2.333,5,2.5e-05
2334,2.334,5,2.5e-05
2335,2.335,5,2.5e-05
2336,2.336,6,3e-05
2337,2.337,8,4e-05
2338,2.338,10,5e-05
2339,2.339,13,6.5e-05
2340,2.34,15,7.5e-05
2341,2.341,17,8.5e-05
2342,2.342,18,9e-05
2343,2.343,19,9.5e-05
2344,2.344,20,0.0001
2345,2.345,22,0.00011
2346,2.346,23,0.000115
2347,2.347,24,0.00012
2348,2.348,25,0.000125
2349,2.349,26,0.00013
2350,2.35,26,0.00013
2351,2.351,26,0.00013
2352,2.352,26,0.00013
2353,2.353,26,0.00013
2354,2.354,26,0.00013
2355,2.355,26,0.00013
2356,2.356,26,0.00013
2357,2.357,26,0.00013
2358,2.358,27,0.000135
2359,2.359,28,0.00014
2360,2.36,29,0.000145
2361,2.361,29,0.000145
2362,2.362,28,0.00014
2363,2.363,27,0.000135
2364,2.364,27,0.000135
2365,2.365,27,0.000135
2366,2.366,27,0.000135
2367,2.367,28,0.00014
2368,2.368,28,0.00014
2369,2.369,29,0.000145
2370,2.37,29,0.000145
2371,2.371,29,0.000145
2372,2.372,30,0.00015
2373,2.373,28,0.00014
2374,2.374,27,0.000135
2375,2.375,26,0.00013
2376,2.376,25,0.000125
2377,2.377,25,0.000125
2378,2.378,26,0.00013
2379,2.379,27,0.000135
2380,2.38,28,0.00014
2381,2.381,28,0.00014
2382,2.382,28,0.00014
2383,2.383,28,0.00014
2384,2.384,28,0.00014
2385,2.385,29,0.000145
2386,2.386,30,0.00015
2387,2.387,31,0.000155
2388,2.388,32,0.00016
2389,2.389,32,0.00016
2390,2.39,32,0.00016
2391,2.391,31,0.000155
2392,2.392,31,0.000155
2393,2.393,30,0.00015
2394,2.394,29,0.000145
2395,2.395,28,0.00014
2396,2.396,28,0.00014
2397,2.397,27,0.000135
2398,2.398,26,0.00013
2399,2.399,25,0.000125
2400,2.4,25,0.000125
2401,2.401,24,0.00012
2402,2.402,23,0.000115
2403,2.403,22,0.00011
2404,2.404,22,0.00011
2405,2.405,20,0.0001
2406,2.406,18,9e-05
2407,2.407,16,8e-05
2408,2.408,15,7.5e-05
2409,2.409,13,6.5e-05
2410,2.41,12,6e-05
2411,2.411,10,5e-05
2412,2.412,9,4.5e-05
2413,2.413,9,4.5e-05
2414,2.414,9,4.5e-05
2415,2.415,9,4.5e-05
2416,2.416,9,4.5e-05
2417,2.417,9,4.5e-05
2418,2.418,10,5e-05
2419,2.419,11,5.5e-05
2420,2.42,12,6e-05
2421,2.421,12,6e-05
2422,2.422,12,6e-05
2423,2.423,12,6e-05
2424,2.424,12,6e-05
2425,2.425,12,6e-05
2426,2.426,12,6e-05
2427,2.427,12,6e-05
2428,2.428,12,6e-05
2429,2.429,11,5.5e-05
2430,2.43,10,5e-05
2431,2.431,9,4.5e-05
2432,2.432,9,4.5e-05
2433,2.433,9,4.5e-05
2434,2.434,9,4.5e-05
2435,2.435,10,5e-05
2436,2.436,10,5e-05
2437,2.437,11,5.5e-05
2438,2.438,11,5.5e-05
2439,2.439,12,6e-05
2440,2.44,12,6e-05
2441,2.441,12,6e-05
2442,2.442,11,5.5e-05
2443,2.443,10,5e-05
2444,2.444,10,5e-05
2445,2.445,8,4e-05
2446,2.446,6,3e-05
2447,2.447,4,2e-05
2448,2.448,2,1e-05
2449,2.449,0,0.0
2450,2.45,-1,-5e-06
2451,2.451,-2,-1e-05
2452,2.452,-3,-1.5e-05
2453,2.453,-3,-1.5e-05
2454,2.454,-3,-1.5e-05
2455,2.455,-3,-1.5e-05
2456,2.456,-2,-1e-05
2457,2.457,-3,-1.5e-05
2458,2.458,-4,-2e-05
2459,2.459,-5,-2.5e-05
2460,2.46,-5,-2.5e-05
2461,2.461,-6,-3e-05
2462,2.462,-7,-3.5e-05
2463,2.463,-8,-4e-05
2464,2.464,-8,-4e-05
2465,2.465,-10,-5e-05
2466,2.466,-11,-5.5e-05
2467,2.467,-12,-6e-05
2468,2.468,-13,-6.5e-05
2469,2.469,-14,-7e-05
2470,2.47,-14,-7e-05
2471,2.471,-14,-7e-05
2472,2.472,-14,-7e-05
2473,2.473,-14,-7e-05
2474,2.474,-14,-7e-05
2475,2.475,-14,-7e-05
2476,2.476,-14,-7e-05
2477,2.477,-15,-7.5e-05
2478,2.478,-16,-8e-05
2479,2.479,-17,-8.5e-05
2480,2.48,-18,-9e-05
2481,2.481,-18,-9e-05
2482,2.482,-17,-8.5e-05
2483,2.483,-16,-8e-05
2484,2.484,-15,-7.5e-05
2485,2.485,-14,-7e-05
2486,2.486,-13,-6.5e-05
2487,2.487,-12,-6e-05
2488,2.488,-11,-5.5e-05
2489,2.489,-10,-5e-05
2490,2.49,-10,-5e-05
2491,2.491,-10,-5e-05
2492,2.492,-10,-5e-05
2493,2.493,-12,-6e-05
2494,2.494,-15,-7.5e-05
2495,2.495,-17,-8.5e-05
2496,2.496,-19,-9.5e-05
2497,2.497,-19,-9.5e-05
2498,2.498,-19,-9.5e-05
2499,2.499,-19,-9.5e-05
2500,2.5,-19,-9.5e-05
2501,2.501,-19,-9.5e-05
2502,2.502,-18,-9e-05
2503,2.503,-17,-8.5e-05
2504,2.504,-17,-8.5e-05
2505,2.505,-18,-9e-05
2506,2.506,-19,-9.5e-05
2507,2.507,-21,-0.000105
2508,2.508,-22,-0.00011
2509,2.509,-23,-0.000115
2510,2.51,-23,-0.000115
2511,2.511,-23,-0.000115
2512,2.512,-23,-0.000115
2513,2.513,-23,-0.000115
2514,2.514,-23,-0.000115
2515,2.515,-23,-0.000115
2516,2.516,-23,-0.000115
2517,2.517,-23,-0.000115
2518,2.518,-23,-0.000115
2519,2.519,-23,-0.000115
2520,2.52,-23,-0.000115
2521,2.521,-23,-0.000115
2522,2.522,-22,-0.00011
2523,2.523,-21,-0.000105
2524,2.524,-20,-0.0001
2525,2.525,-19,-9.5e-05
2526,2.526,-18,-9e-05
2527,2.527,-17,-8.5e-05
2528,2.528,-16,-8e-05
2529,2.529,-17,-8.5e-05
2530,2.53,-18,-9e-05
2531,2.531,-19,-9.5e-05
2532,2.532,-20,-0.0001
2533,2.533,-20,-0.0001
2534,2.534,-19,-9.5e-05
2535,2.535,-18,-9e-05
2536,2.536,-18,-9e-05
2537,2.537,-19,-9.5e-05
2538,2.538,-20,-0.0001
2539,2.539,-21,-0.000105
2540,2.54,-22,-0.00011
2541,2.541,-23,-0.000115
2542,2.542,-23,-0.000115
2543,2.543,-23,-0.000115
2544,2.544,-23,-0.000115
2545,2.545,-23,-0.000115
2546,2.546,-23,-0.000115
2547,2.547,-23,-0.000115
2548,2.548,-23,-0.000115
2549,2.549,-24,-0.00012
2550,2.55,-25,-0.000125
2551,2.551,-26,-0.00013
2552,2.552,-26,-0.00013
2553,2.553,-26,-0.00013
2554,2.554,-26,-0.00013
2555,2.555,-26,-0.00013
2556,2.556,-26,-0.00013
2557,2.557,-25,-0.000125
2558,2.558,-24,-0.00012
2559,2.559,-23,-0.000115
2560,2.56,-23,-0.000115
2561,2.561,-22,-0.00011
2562,2.562,-21,-0.000105
2563,2.563,-20,-0.0001
2564,2.564,-20,-0.0001
2565,2.565,-20,-0.0001
2566,2.566,-20,-0.0001
2567,2.567,-20,-0.0001
2568,2.568,-20,-0.0001
2569,2.569,-19,-9.5e-05
2570,2.57,-18,-9e-05
2571,2.571,-17,-8.5e-05
2572,2.572,-16,-8e-05
2573,2.573,-15,-7.5e-05
2574,2.574,-15,-7.5e-05
2575,2.575,-15,-7.5e-05
2576,2.576,-15,-7.5e-05
2577,2.577,-13,-6.5e-05
2578,2.578,-12,-6e-05
2579,2.579,-10,-5e-05
2580,2.58,-9,-4.5e-05
2581,2.581,-7,-3.5e-05
2582,2.582,-4,-2e-05
2583,2.583,-2,-1e-05
2584,2.584,0,0.0
2585,2.585,2,1e-05
2586,2.586,3,1.5e-05
2587,2.587,4,2e-05
2588,2.588,5,2.5e-05
2589,2.589,7,3.5e-05
2590,2.59,9,4.5e-05
2591,2.591,11,5.5e-05
2592,2.592,12,6e-05
2593,2.593,13,6.5e-05
2594,2.594,13,6.5e-05
2595,2.595,14,7e-05
2596,2.596,14,7e-05
2597,2.597,15,7.5e-05
2598,2.598,15,7.5e-05
2599,2.599,15,7.5e-05
2600,2.6,15,7.5e-05
2601,2.601,14,7e-05
2602,2.602,13,6.5e-05
2603,2.603,12,6e-05
2604,2.604,12,6e-05
2605,2.605,14,7e-05
2606,2.606,16,8e-05
2607,2.607,19,9.5e-05
2608,2.608,21,0.000105
2609,2.609,23,0.000115
2610,2.61,24,0.00012
2611,2.611,26,0.00013
2612,2.612,27,0.000135
2613,2.613,28,0.00014
2614,2.614,28,0.00014
2615,2.615,29,0.000145
2616,2.616,29,0.000145
2617,2.617,29,0.000145
2618,2.618,29,0.000145
2619,2.619,29,0.000145
2620,2.62,29,0.000145
2621,2.621,29,0.000145
2622,2.622,29,0.000145
2623,2.623,29,0.000145
2624,2.624,29,0.000145
2625,2.625,29,0.000145
2626,2.626,29,0.000145
2627,2.627,29,0.000145
2628,2.628,29,0.000145
2629,2.629,26,0.00013
2630,2.63,24,0.00012
2631,2.631,21,0.000105
2632,2.632,19,9.5e-05
2633,2.633,17,8.5e-05
2634,2.634,14,7e-05
2635,2.635,12,6e-05
2636,2.636,10,5e-05
2637,2.637,8,4e-05
2638,2.638,7,3.5e-05
2639,2.639,6,3e-05
2640,2.64,5,2.5e-05
2641,2.641,3,1.5e-05
2642,2.642,2,1e-05
2643,2.643,1,5e-06
2644,2.644,0,0.0
2645,2.645,-2,-1e-05
2646,2.646,-3,-1.5e-05
2647,2.647,-5,-2.5e-05
2648,2.648,-6,-3e-05
2649,2.649,-8,-4e-05
2650,2.65,-9,-4.5e-05
2651,2.651,-10,-5e-05
2652,2.652,-11,-5.5e-05
2653,2.653,-12,-6e-05
2654,2.654,-12,-6e-05
2655,2.655,-12,-6e-05
2656,2.656,-12,-6e-05
2657,2.657,-14,-7e-05
2658,2.658,-15,-7.5e-05
2659,2.659,-17,-8.5e-05
2660,2.66,-18,-9e-05
2661,2.661,-19,-9.5e-05
2662,2.662,-20,-0.0001
2663,2.663,-21,-0.000105
2664,2.664,-22,-0.00011
2665,2.665,-23,-0.000115
2666,2.666,-23,-0.000115
2667,2.667,-23,-0.000115
2668,2.668,-23,-0.000115
2669,2.669,-25,-0.000125
2670,2.67,-27,-0.000135
2671,2.671,-28,-0.00014
2672,2.672,-30,-0.00015
2673,2.673,-30,-0.00015
2674,2.674,-29,-0.000145
2675,2.675,-28,-0.00014
2676,2.676,-27,-0.000135
2677,2.677,-26,-0.00013
2678,2.678,-26,-0.00013
2679,2.679,-26,-0.00013
2680,2.68,-26,-0.00013
2681,2.681,-26,-0.00013
2682,2.682,-26,-0.00013
2683,2.683,-25,-0.000125
2684,2.684,-25,-0.000125
2685,2.685,-24,-0.00012
2686,2.686,-24,-0.00012
2687,2.687,-24,-0.00012
2688,2.688,-24,-0.00012
2689,2.689,-22,-0.00011
2690,2.69,-21,-0.000105
2691,2.691,-20,-0.0001
2692,2.692,-19,-9.5e-05
2693,2.693,-16,-8e-05
2694,2.694,-13,-6.5e-05
2695,2.695,-11,-5.5e-05
2696,2.696,-8,-4e-05
2697,2.697,0,0.0
2698,2.698,9,4.5e-05
2699,2.699,18,9e-05
2700,2.7,27,0.000135
2701,2.701,39,0.000195
2702,2.702,51,0.000255
2703,2.703,63,0.000315
2704,2.704,75,0.000375
2705,2.705,89,0.000445
2706,2.706,104,0.00052
2707,2.707,118,0.00059
2708,2.708,133,0.000665
2709,2.709,144,0.00072
2710,2.71,156,0.00078
2711,2.711,167,0.000835
2712,2.712,178,0.00089
2713,2.713,186,0.00093
2714,2.714,194,0.00097
2715,2.715,201,0.001005
2716,2.716,209,0.001045
2717,2.717,214,0.00107
2718,2.718,218,0.00109
2719,2.719,223,0.001115
2720,2.72,228,0.00114
2721,2.721,222,0.00111
2722,2.722,215,0.001075
2723,2.723,208,0.00104
2724,2.724,201,0.001005
2725,2.725,171,0.000855
2726,2.726,138,0.00069
2727,2.727,104,0.00052
2728,2.728,71,0.000355
2729,2.729,27,0.000135
2730,2.73,-19,-9.5e-05
2731,2.731,-65,-0.000325
2732,2.732,-111,-0.000555
2733,2.733,-146,-0.00073
2734,2.734,-179,-0.000895
2735,2.735,-213,-0.001065
2736,2.736,-246,-0.00123
2737,2.737,-263,-0.001315
2738,2.738,-277,-0.001385
2739,2.739,-292,-0.00146
2740,2.74,-306,-0.00153
2741,2.741,-308,-0.00154
2742,2.742,-308,-0.00154
2743,2.743,-307,-0.001535
2744,2.744,-307,-0.001535
2745,2.745,-299,-0.001495
2746,2.746,-290,-0.00145
2747,2.747,-281,-0.001405
2748,2.748,-272,-0.00136
2749,2.749,-255,-0.001275
2750,2.75,-238,-0.00119
2751,2.751,-220,-0.0011
2752,2.752,-203,-0.001015
2753,2.753,-188,-0.00094
2754,2.754,-174,-0.00087
2755,2.755,-160,-0.0008
2756,2.756,-146,-0.00073
2757,2.757,-135,-0.000675
2758,2.758,-124,-0.00062
2759,2.759,-113,-0.000565
2760,2.76,-102,-0.00051
2761,2.761,-95,-0.000475
2762,2.762,-88,-0.00044
2763,2.763,-81,-0.000405
2764,2.764,-74,-0.00037
2765,2.765,-70,-0.00035
2766,2.766,-66,-0.00033
2767,2.767,-62,-0.00031
2768,2.768,-58,-0.00029
2769,2.769,-56,-0.00028
2770,2.77,-55,-0.000275
2771,2.771,-53,-0.000265
2772,2.772,-52,-0.00026
2773,2.773,-50,-0.00025
2774,2.774,-48,-0.00024
2775,2.775,-46,-0.00023
2776,2.776,-44,-0.00022
2777,2.777,-42,-0.00021
2778,2.778,-40,-0.0002
2779,2.779,-38,-0.00019
2780,2.78,-36,-0.00018
2781,2.781,-35,-0.000175
2782,2.782,-34,-0.00017
2783,2.783,-33,-0.000165
2784,2.784,-33,-0.000165
2785,2.785,-34,-0.00017
2786,2.786,-35,-0.000175
2787,2.787,-36,-0.00018
2788,2.788,-37,-0.000185
2789,2.789,-37,-0.000185
2790,2.79,-36,-0.00018
2791,2.791,-35,-0.000175
2792,2.792,-34,-0.00017
2793,2.793,-34,-0.00017
2794,2.794,-34,-0.00017
2795,2.795,-34,-0.00017
2796,2.796,-34,-0.00017
2797,2.797,-34,-0.00017
2798,2.798,-33,-0.000165
2799,2.799,-32,-0.00016
2800,2.8,-32,-0.00016
2801,2.801,-31,-0.000155
2802,2.802,-30,-0.00015
2803,2.803,-29,-0.000145
2804,2.804,-28,-0.00014
2805,2.805,-28,-0.00014
2806,2.806,-28,-0.00014
2807,2.807,-29,-0.000145
2808,2.808,-29,-0.000145
2809,2.809,-29,-0.000145
2810,2.81,-28,-0.00014
2811,2.811,-27,-0.000135
2812,2.812,-27,-0.000135
2813,2.813,-27,-0.000135
2814,2.814,-27,-0.000135
2815,2.815,-28,-0.00014
2816,2.816,-28,-0.00014
2817,2.817,-29,-0.000145
2818,2.818,-29,-0.000145
2819,2.819,-29,-0.000145
2820,2.82,-29,-0.000145
2821,2.821,-30,-0.00015
2822,2.822,-31,-0.000155
2823,2.823,-32,-0.00016
2824,2.824,-33,-0.000165
2825,2.825,-34,-0.00017
2826,2.826,-35,-0.000175
2827,2.827,-36,-0.00018
2828,2.828,-36,-0.00018
2829,2.829,-37,-0.000185
2830,2.83,-38,-0.00019
2831,2.831,-39,-0.000195
2832,2.832,-39,-0.000195
2833,2.833,-40,-0.0002
2834,2.834,-41,-0.000205
2835,2.835,-42,-0.00021
2836,2.836,-43,-0.000215
2837,2.837,-42,-0.00021
2838,2.838,-40,-0.0002
2839,2.839,-38,-0.00019
2840,2.84,-36,-0.00018
2841,2.841,-34,-0.00017
2842,2.842,-33,-0.000165
2843,2.843,-31,-0.000155
2844,2.844,-30,-0.00015
2845,2.845,-30,-0.00015
2846,2.846,-30,-0.00015
2847,2.847,-30,-0.00015
2848,2.848,-30,-0.00015
2849,2.849,-31,-0.000155
2850,2.85,-31,-0.000155
2851,2.851,-32,-0.00016
2852,2.852,-32,-0.00016
2853,2.853,-33,-0.000165
2854,2.854,-33,-0.000165
2855,2.855,-33,-0.000165
2856,2.856,-33,-0.000165
2857,2.857,-35,-0.000175
2858,2.858,-36,-0.00018
2859,2.859,-38,-0.00019
2860,2.86,-39,-0.000195
2861,2.861,-38,-0.00019
2862,2.862,-37,-0.000185
2863,2.863,-36,-0.00018
2864,2.864,-35,-0.000175
2865,2.865,-34,-0.00017
2866,2.866,-34,-0.00017
2867,2.867,-33,-0.000165
2868,2.868,-33,-0.000165
2869,2.869,-32,-0.00016
2870,2.87,-31,-0.000155
2871,2.871,-30,-0.00015
2872,2.872,-30,-0.00015
2873,2.873,-28,-0.00014
2874,2.874,-27,-0.000135
2875,2.875,-25,-0.000125
2876,2.876,-24,-0.00012
2877,2.877,-23,-0.000115
2878,2.878,-22,-0.00011
2879,2.879,-21,-0.000105
2880,2.88,-21,-0.000105
2881,2.881,-19,-9.5e-05
2882,2.882,-18,-9e-05
2883,2.883,-16,-8e-05
2884,2.884,-15,-7.5e-05
2885,2.885,-14,-7e-05
2886,2.886,-13,-6.5e-05
2887,2.887,-12,-6e-05
2888,2.888,-11,-5.5e-05
2889,2.889,-12,-6e-05
2890,2.89,-14,-7e-05
2891,2.891,-15,-7.5e-05
2892,2.892,-17,-8.5e-05
2893,2.893,-18,-9e-05
2894,2.894,-19,-9.5e-05
2895,2.895,-20,-0.0001
2896,2.896,-21,-0.000105
2897,2.897,-23,-0.000115
2898,2.898,-24,-0.00012
2899,2.899,-25,-0.000125
2900,2.9,-26,-0.00013
2901,2.901,-27,-0.000135
2902,2.902,-28,-0.00014
2903,2.903,-29,-0.000145
2904,2.904,-30,-0.00015
2905,2.905,-31,-0.000155
2906,2.906,-31,-0.000155
2907,2.907,-31,-0.000155
2908,2.908,-31,-0.000155
2909,2.909,-31,-0.000155
2910,2.91,-31,-0.000155
2911,2.911,-30,-0.00015
2912,2.912,-30,-0.00015
2913,2.913,-30,-0.00015
2914,2.914,-31,-0.000155
2915,2.915,-32,-0.00016
2916,2.916,-32,-0.00016
2917,2.917,-32,-0.00016
2918,2.918,-32,-0.00016
2919,2.919,-32,-0.00016
2920,2.92,-32,-0.00016
2921,2.921,-32,-0.00016
2922,2.922,-32,-0.00016
2923,2.923,-32,-0.00016
2924,2.924,-32,-0.00016
2925,2.925,-33,-0.000165
2926,2.926,-33,-0.000165
2927,2.927,-33,-0.000165
2928,2.928,-33,-0.000165
2929,2.929,-34,-0.00017
2930,2.93,-34,-0.00017
2931,2.931,-35,-0.000175
2932,2.932,-35,-0.000175
2933,2.933,-36,-0.00018
2934,2.934,-36,-0.00018
2935,2.935,-36,-0.00018
2936,2.936,-36,-0.00018
2937,2.937,-39,-0.000195
2938,2.938,-42,-0.00021
2939,2.939,-45,-0.000225
2940,2.94,-48,-0.00024
2941,2.941,-49,-0.000245
2942,2.942,-50,-0.00025
2943,2.943,-51,-0.000255
2944,2.944,-52,-0.00026
2945,2.945,-55,-0.000275
2946,2.946,-58,-0.00029
2947,2.947,-61,-0.000305
2948,2.948,-64,-0.00032
2949,2.949,-67,-0.000335
2950,2.95,-70,-0.00035
2951,2.951,-72,-0.00036
2952,2.952,-75,-0.000375
2953,2.953,-77,-0.000385
2954,2.954,-79,-0.000395
2955,2.955,-80,-0.0004
2956,2.956,-82,-0.00041
2957,2.957,-85,-0.000425
2958,2.958,-88,-0.00044
2959,2.959,-90,-0.00045
2960,2.96,-93,-0.000465
2961,2.961,-94,-0.00047
2962,2.962,-95,-0.000475
2963,2.963,-96,-0.00048
2964,2.964,-97,-0.000485
2965,2.965,-100,-0.0005
2966,2.966,-103,-0.000515
2967,2.967,-105,-0.000525
2968,2.968,-108,-0.00054
2969,2.969,-108,-0.00054
2970,2.97,-108,-0.00054
2971,2.971,-107,-0.000535
2972,2.972,-107,-0.000535
2973,2.973,-106,-0.00053
2974,2.974,-105,-0.000525
2975,2.975,-104,-0.00052
2976,2.976,-104,-0.00052
2977,2.977,-103,-0.000515
2978,2.978,-102,-0.00051
2979,2.979,-101,-0.000505
2980,2.98,-100,-0.0005
2981,2.981,-101,-0.000505
2982,2.982,-103,-0.000515
2983,2.983,-105,-0.000525
2984,2.984,-107,-0.000535
2985,2.985,-107,-0.000535
2986,2.986,-107,-0.000535
2987,2.987,-106,-0.00053
2988,2.988,-106,-0.00053
2989,2.989,-104,-0.00052
2990,2.99,-103,-0.000515
2991,2.991,-102,-0.00051
2992,2.992,-101,-0.000505
2993,2.993,-102,-0.00051
2994,2.994,-103,-0.000515
2995,2.995,-105,-0.000525
2996,2.996,-106,-0.00053
2997,2.997,-105,-0.000525
2998,2.998,-104,-0.00052
2999,2.999,-103,-0.000515
3000,3.0,-102,-0.00051
3001,3.001,-100,-0.0005
3002,3.002,-98,-0.00049
3003,3.003,-96,-0.00048
3004,3.004,-95,-0.000475
3005,3.005,-93,-0.000465
3006,3.006,-90,-0.00045
3007,3.007,-88,-0.00044
3008,3.008,-86,-0.00043
3009,3.009,-84,-0.00042
3010,3.01,-83,-0.000415
3011,3.011,-81,-0.000405
3012,3.012,-80,-0.0004
3013,3.013,-79,-0.000395
3014,3.014,-79,-0.000395
3015,3.015,-79,-0.000395
3016,3.016,-79,-0.000395
3017,3.017,-78,-0.00039
3018,3.018,-77,-0.000385
3019,3.019,-75,-0.000375
3020,3.02,-74,-0.00037
3021,3.021,-70,-0.00035
3022,3.022,-66,-0.00033
3023,3.023,-62,-0.00031
3024,3.024,-58,-0.00029
3025,3.025,-53,-0.000265
3026,3.026,-48,-0.00024
3027,3.027,-43,-0.000215
3028,3.028,-37,-0.000185
3029,3.029,-35,-0.000175
3030,3.03,-34,-0.00017
3031,3.031,-32,-0.00016
3032,3.032,-31,-0.000155
3033,3.033,-30,-0.00015
3034,3.034,-30,-0.00015
3035,3.035,-29,-0.000145
3036,3.036,-29,-0.000145
3037,3.037,-26,-0.00013
3038,3.038,-23,-0.000115
3039,3.039,-21,-0.000105
3040,3.04,-18,-9e-05
3041,3.041,-16,-8e-05
3042,3.042,-14,-7e-05
3043,3.043,-12,-6e-05
3044,3.044,-10,-5e-05
3045,3.045,-8,-4e-05
3046,3.046,-7,-3.5e-05
3047,3.047,-6,-3e-05
3048,3.048,-5,-2.5e-05
3049,3.049,-2,-1e-05
3050,3.05,0,0.0
3051,3.051,3,1.5e-05
3052,3.052,5,2.5e-05
3053,3.053,9,4.5e-05
3054,3.054,12,6e-05
3055,3.055,16,8e-05
3056,3.056,20,0.0001
3057,3.057,23,0.000115
3058,3.058,25,0.000125
3059,3.059,28,0.00014
3060,3.06,30,0.00015
3061,3.061,31,0.000155
3062,3.062,32,0.00016
3063,3.063,33,0.000165
3064,3.064,34,0.00017
3065,3.065,35,0.000175
3066,3.066,35,0.000175
3067,3.067,36,0.00018
3068,3.068,36,0.00018
3069,3.069,36,0.00018
3070,3.07,36,0.00018
3071,3.071,36,0.00018
3072,3.072,36,0.00018
3073,3.073,35,0.000175
3074,3.074,34,0.00017
3075,3.075,33,0.000165
3076,3.076,33,0.000165
3077,3.077,34,0.00017
3078,3.078,35,0.000175
3079,3.079,36,0.00018
3080,3.08,37,0.000185
3081,3.081,39,0.000195
3082,3.082,40,0.0002
3083,3.083,42,0.00021
3084,3.084,43,0.000215
3085,3.085,44,0.00022
3086,3.086,44,0.00022
3087,3.087,45,0.000225
3088,3.088,45,0.000225
3089,3.089,44,0.00022
3090,3.09,42,0.00021
3091,3.091,41,0.000205
3092,3.092,39,0.000195
3093,3.093,38,0.00019
3094,3.094,37,0.000185
3095,3.095,36,0.00018
3096,3.096,35,0.000175
3097,3.097,35,0.000175
3098,3.098,35,0.000175
3099,3.099,36,0.00018
3100,3.1,36,0.00018
3101,3.101,37,0.000185
3102,3.102,38,0.00019
3103,3.103,39,0.000195
3104,3.104,40,0.0002
3105,3.105,41,0.000205
3106,3.106,42,0.00021
3107,3.107,43,0.000215
3108,3.108,44,0.00022
3109,3.109,45,0.000225
3110,3.11,46,0.00023
3111,3.111,47,0.000235
3112,3.112,47,0.000235
3113,3.113,48,0.00024
3114,3.114,49,0.000245
3115,3.115,50,0.00025
3116,3.116,51,0.000255
3117,3.117,52,0.00026
3118,3.118,53,0.000265
3119,3.119,54,0.00027
3120,3.12,54,0.00027
3121,3.121,53,0.000265
3122,3.122,52,0.00026
3123,3.123,51,0.000255
3124,3.124,50,0.00025
3125,3.125,49,0.000245
3126,3.126,49,0.000245
3127,3.127,49,0.000245
3128,3.128,49,0.000245
3129,3.129,49,0.000245
3130,3.13,50,0.00025
3131,3.131,51,0.000255
3132,3.132,51,0.000255
3133,3.133,51,0.000255
3134,3.134,50,0.00025
3135,3.135,49,0.000245
3136,3.136,48,0.00024
3137,3.137,47,0.000235
3138,3.138,47,0.000235
3139,3.139,46,0.00023
3140,3.14,46,0.00023
3141,3.141,45,0.000225
3142,3.142,44,0.00022
3143,3.143,43,0.000215
3144,3.144,42,0.00021
3145,3.145,42,0.00021
3146,3.146,43,0.000215
3147,3.147,44,0.00022
3148,3.148,44,0.00022
3149,3.149,46,0.00023
3150,3.15,47,0.000235
3151,3.151,49,0.000245
3152,3.152,50,0.00025
3153,3.153,51,0.000255
3154,3.154,52,0.00026
3155,3.155,53,0.000265
3156,3.156,53,0.000265
3157,3.157,55,0.000275
3158,3.158,56,0.00028
3159,3.159,58,0.00029
3160,3.16,59,0.000295
3161,3.161,59,0.000295
3162,3.162,59,0.000295
3163,3.163,58,0.00029
3164,3.164,58,0.00029
3165,3.165,57,0.000285
3166,3.166,56,0.00028
3167,3.167,55,0.000275
3168,3.168,54,0.00027
3169,3.169,53,0.000265
3170,3.17,52,0.00026
3171,3.171,51,0.000255
3172,3.172,51,0.000255
3173,3.173,50,0.00025
3174,3.174,49,0.000245
3175,3.175,48,0.00024
3176,3.176,48,0.00024
3177,3.177,47,0.000235
3178,3.178,47,0.000235
3179,3.179,47,0.000235
3180,3.18,47,0.000235
3181,3.181,47,0.000235
3182,3.182,48,0.00024
3183,3.183,49,0.000245
3184,3.184,50,0.00025
3185,3.185,50,0.00025
3186,3.186,50,0.00025
3187,3.187,50,0.00025
3188,3.188,50,0.00025
3189,3.189,50,0.00025
3190,3.19,51,0.000255
3191,3.191,52,0.00026
3192,3.192,52,0.00026
3193,3.193,53,0.000265
3194,3.194,54,0.00027
3195,3.195,55,0.000275
3196,3.196,55,0.000275
3197,3.197,56,0.00028
3198,3.198,57,0.000285
3199,3.199,58,0.00029
3200,3.2,59,0.000295
3201,3.201,60,0.0003
3202,3.202,60,0.0003
3203,3.203,60,0.0003
3204,3.204,60,0.0003
3205,3.205,60,0.0003
3206,3.206,61,0.000305
3207,3.207,62,0.00031
3208,3.208,63,0.000315
3209,3.209,64,0.00032
3210,3.21,64,0.00032
3211,3.211,64,0.00032
3212,3.212,64,0.00032
3213,3.213,61,0.000305
3214,3.214,58,0.00029
3215,3.215,54,0.00027
3216,3.216,51,0.000255
3217,3.217,50,0.00025
3218,3.218,50,0.00025
3219,3.219,49,0.000245
3220,3.22,49,0.000245
3221,3.221,48,0.00024
3222,3.222,47,0.000235
3223,3.223,46,0.00023
3224,3.224,45,0.000225
3225,3.225,45,0.000225
3226,3.226,45,0.000225
3227,3.227,45,0.000225
3228,3.228,45,0.000225
3229,3.229,45,0.000225
3230,3.23,46,0.00023
3231,3.231,47,0.000235
3232,3.232,48,0.00024
3233,3.233,50,0.00025
3234,3.234,51,0.000255
3235,3.235,53,0.000265
3236,3.236,54,0.00027
3237,3.237,57,0.000285
3238,3.238,59,0.000295
3239,3.239,62,0.00031
3240,3.24,64,0.00032
3241,3.241,64,0.00032
3242,3.242,64,0.00032
3243,3.243,64,0.00032
3244,3.244,64,0.00032
3245,3.245,63,0.000315
3246,3.246,62,0.00031
3247,3.247,61,0.000305
3248,3.248,60,0.0003
3249,3.249,60,0.0003
3250,3.25,61,0.000305
3251,3.251,62,0.00031
3252,3.252,62,0.00031
3253,3.253,62,0.00031
3254,3.254,62,0.00031
3255,3.255,61,0.000305
3256,3.256,61,0.000305
3257,3.257,59,0.000295
3258,3.258,58,0.00029
3259,3.259,56,0.00028
3260,3.26,55,0.000275
3261,3.261,55,0.000275
3262,3.262,56,0.00028
3263,3.263,57,0.000285
3264,3.264,57,0.000285
3265,3.265,57,0.000285
3266,3.266,56,0.00028
3267,3.267,55,0.000275
3268,3.268,55,0.000275
3269,3.269,55,0.000275
3270,3.27,55,0.000275
3271,3.271,55,0.000275
3272,3.272,55,0.000275
3273,3.273,55,0.000275
3274,3.274,56,0.00028
3275,3.275,57,0.000285
3276,3.276,58,0.00029
3277,3.277,58,0.00029
3278,3.278,57,0.000285
3279,3.279,56,0.00028
3280,3.28,55,0.000275
3281,3.281,55,0.000275
3282,3.282,56,0.00028
3283,3.283,57,0.000285
3284,3.284,57,0.000285
3285,3.285,58,0.00029
3286,3.286,58,0.00029
3287,3.287,59,0.000295
3288,3.288,59,0.000295
3289,3.289,60,0.0003
3290,3.29,60,0.0003
3291,3.291,61,0.000305
3292,3.292,61,0.000305
3293,3.293,63,0.000315
3294,3.294,66,0.00033
3295,3.295,68,0.00034
3296,3.296,70,0.00035
3297,3.297,69,0.000345
3298,3.298,68,0.00034
3299,3.299,66,0.00033
3300,3.3,65,0.000325
3301,3.301,65,0.000325
3302,3.302,66,0.00033
3303,3.303,67,0.000335
3304,3.304,67,0.000335
3305,3.305,68,0.00034
3306,3.306,68,0.00034
3307,3.307,68,0.00034
3308,3.308,68,0.00034
3309,3.309,67,0.000335
3310,3.31,66,0.00033
3311,3.311,64,0.00032
3312,3.312,63,0.000315
3313,3.313,62,0.00031
3314,3.314,62,0.00031
3315,3.315,62,0.00031
3316,3.316,62,0.00031
3317,3.317,63,0.000315
3318,3.318,64,0.00032
3319,3.319,66,0.00033
3320,3.32,67,0.000335
3321,3.321,66,0.00033
3322,3.322,64,0.00032
3323,3.323,62,0.00031
3324,3.324,60,0.0003
3325,3.325,58,0.00029
3326,3.326,57,0.000285
3327,3.327,55,0.000275
3328,3.328,54,0.00027
3329,3.329,54,0.00027
3330,3.33,54,0.00027
3331,3.331,55,0.000275
3332,3.332,55,0.000275
3333,3.333,57,0.000285
3334,3.334,60,0.0003
3335,3.335,62,0.00031
3336,3.336,64,0.00032
3337,3.337,66,0.00033
3338,3.338,68,0.00034
3339,3.339,70,0.00035
3340,3.34,72,0.00036
3341,3.341,72,0.00036
3342,3.342,72,0.00036
3343,3.343,72,0.00036
3344,3.344,72,0.00036
3345,3.345,73,0.000365
3346,3.346,74,0.00037
3347,3.347,76,0.00038
3348,3.348,77,0.000385
3349,3.349,76,0.00038
3350,3.35,75,0.000375
3351,3.351,73,0.000365
3352,3.352,72,0.00036
3353,3.353,72,0.00036
3354,3.354,72,0.00036
3355,3.355,72,0.00036
3356,3.356,72,0.00036
3357,3.357,74,0.00037
3358,3.358,76,0.00038
3359,3.359,77,0.000385
3360,3.36,79,0.000395
3361,3.361,81,0.000405
3362,3.362,83,0.000415
3363,3.363,85,0.000425
3364,3.364,87,0.000435
3365,3.365,87,0.000435
3366,3.366,86,0.00043
3367,3.367,85,0.000425
3368,3.368,85,0.000425
3369,3.369,85,0.000425
3370,3.37,85,0.000425
3371,3.371,85,0.000425
3372,3.372,85,0.000425
3373,3.373,86,0.00043
3374,3.374,88,0.00044
3375,3.375,90,0.00045
3376,3.376,92,0.00046
3377,3.377,96,0.00048
3378,3.378,101,0.000505
3379,3.379,105,0.000525
3380,3.38,110,0.00055
3381,3.381,113,0.000565
3382,3.382,116,0.00058
3383,3.383,120,0.0006
3384,3.384,123,0.000615
3385,3.385,124,0.00062
3386,3.386,124,0.00062
3387,3.387,124,0.00062
3388,3.388,124,0.00062
3389,3.389,124,0.00062
3390,3.39,123,0.000615
3391,3.391,122,0.00061
3392,3.392,121,0.000605
3393,3.393,123,0.000615
3394,3.394,126,0.00063
3395,3.395,129,0.000645
3396,3.396,132,0.00066
3397,3.397,134,0.00067
3398,3.398,135,0.000675
3399,3.399,136,0.00068
3400,3.4,137,0.000685
3401,3.401,134,0.00067
3402,3.402,131,0.000655
3403,3.403,127,0.000635
3404,3.404,123,0.000615
3405,3.405,120,0.0006
3406,3.406,118,0.00059
3407,3.407,115,0.000575
3408,3.408,113,0.000565
3409,3.409,112,0.00056
3410,3.41,112,0.00056
3411,3.411,111,0.000555
3412,3.412,111,0.000555
3413,3.413,110,0.00055
3414,3.414,109,0.000545
3415,3.415,108,0.00054
3416,3.416,107,0.000535
3417,3.417,105,0.000525
3418,3.418,102,0.00051
3419,3.419,100,0.0005
3420,3.42,98,0.00049
3421,3.421,97,0.000485
3422,3.422,96,0.00048
3423,3.423,95,0.000475
3424,3.424,94,0.00047
3425,3.425,93,0.000465
3426,3.426,93,0.000465
3427,3.427,93,0.000465
3428,3.428,93,0.000465
3429,3.429,92,0.00046
3430,3.43,92,0.00046
3431,3.431,92,0.00046
3432,3.432,92,0.00046
3433,3.433,90,0.00045
3434,3.434,87,0.000435
3435,3.435,85,0.000425
3436,3.436,83,0.000415
3437,3.437,83,0.000415
3438,3.438,84,0.00042
3439,3.439,85,0.000425
3440,3.44,86,0.00043
3441,3.441,87,0.000435
3442,3.442,87,0.000435
3443,3.443,87,0.000435
3444,3.444,87,0.000435
3445,3.445,83,0.000415
3446,3.446,80,0.0004
3447,3.447,76,0.00038
3448,3.448,72,0.00036
3449,3.449,73,0.000365
3450,3.45,74,0.00037
3451,3.451,75,0.000375
3452,3.452,76,0.00038
3453,3.453,78,0.00039
3454,3.454,80,0.0004
3455,3.455,81,0.000405
3456,3.456,83,0.000415
3457,3.457,85,0.000425
3458,3.458,86,0.00043
3459,3.459,88,0.00044
3460,3.46,89,0.000445
3461,3.461,92,0.00046
3462,3.462,95,0.000475
3463,3.463,98,0.00049
3464,3.464,101,0.000505
3465,3.465,103,0.000515
3466,3.466,106,0.00053
3467,3.467,108,0.00054
3468,3.468,110,0.00055
3469,3.469,117,0.000585
3470,3.47,124,0.00062
3471,3.471,131,0.000655
3472,3.472,138,0.00069
3473,3.473,152,0.00076
3474,3.474,167,0.000835
3475,3.475,183,0.000915
3476,3.476,198,0.00099
3477,3.477,214,0.00107
3478,3.478,229,0.001145
3479,3.479,245,0.001225
3480,3.48,261,0.001305
3481,3.481,271,0.001355
3482,3.482,281,0.001405
3483,3.483,290,0.00145
3484,3.484,300,0.0015
3485,3.485,306,0.00153
3486,3.486,311,0.001555
3487,3.487,316,0.00158
3488,3.488,321,0.001605
3489,3.489,318,0.00159
3490,3.49,314,0.00157
3491,3.491,310,0.00155
3492,3.492,306,0.00153
3493,3.493,284,0.00142
3494,3.494,259,0.001295
3495,3.495,233,0.001165
3496,3.496,208,0.00104
3497,3.497,167,0.000835
3498,3.498,123,0.000615
3499,3.499,79,0.000395
3500,3.5,34,0.00017
3501,3.501,-5,-2.5e-05
3502,3.502,-43,-0.000215
3503,3.503,-82,-0.00041
3504,3.504,-120,-0.0006
3505,3.505,-142,-0.00071
3506,3.506,-162,-0.00081
3507,3.507,-181,-0.000905
3508,3.508,-200,-0.001
3509,3.509,-205,-0.001025
3510,3.51,-206,-0.00103
3511,3.511,-208,-0.00104
3512,3.512,-209,-0.001045
3513,3.513,-205,-0.001025
3514,3.514,-200,-0.001
3515,3.515,-195,-0.000975
3516,3.516,-189,-0.000945
3517,3.517,-183,-0.000915
3518,3.518,-176,-0.00088
3519,3.519,-169,-0.000845
3520,3.52,-162,-0.00081
3521,3.521,-150,-0.00075
3522,3.522,-137,-0.000685
3523,3.523,-124,-0.00062
3524,3.524,-111,-0.000555
3525,3.525,-99,-0.000495
3526,3.526,-88,-0.00044
3527,3.527,-77,-0.000385
3528,3.528,-66,-0.00033
3529,3.529,-57,-0.000285
3530,3.53,-47,-0.000235
3531,3.531,-38,-0.00019
3532,3.532,-28,-0.00014
3533,3.533,-22,-0.00011
3534,3.534,-16,-8e-05
3535,3.535,-10,-5e-05
3536,3.536,-4,-2e-05
3537,3.537,-1,-5e-06
3538,3.538,2,1e-05
3539,3.539,4,2e-05
3540,3.54,6,3e-05
3541,3.541,9,4.5e-05
3542,3.542,12,6e-05
3543,3.543,14,7e-05
3544,3.544,17,8.5e-05
3545,3.545,18,9e-05
3546,3.546,18,9e-05
3547,3.547,19,9.5e-05
3548,3.548,19,9.5e-05
3549,3.549,20,0.0001
3550,3.55,20,0.0001
3551,3.551,20,0.0001
3552,3.552,20,0.0001
3553,3.553,20,0.0001
3554,3.554,21,0.000105
3555,3.555,22,0.00011
3556,3.556,22,0.00011
3557,3.557,24,0.00012
3558,3.558,26,0.00013
3559,3.559,27,0.000135
3560,3.56,29,0.000145
3561,3.561,30,0.00015
3562,3.562,31,0.000155
3563,3.563,32,0.00016
3564,3.564,32,0.00016
3565,3.565,32,0.00016
3566,3.566,32,0.00016
3567,3.567,31,0.000155
3568,3.568,31,0.000155
3569,3.569,30,0.00015
3570,3.57,29,0.000145
3571,3.571,28,0.00014
3572,3.572,28,0.00014
3573,3.573,28,0.00014
3574,3.574,29,0.000145
3575,3.575,30,0.00015
3576,3.576,31,0.000155
3577,3.577,31,0.000155
3578,3.578,31,0.000155
3579,3.579,31,0.000155
3580,3.58,31,0.000155
3581,3.581,30,0.00015
3582,3.582,30,0.00015
3583,3.583,29,0.000145
3584,3.584,29,0.000145
3585,3.585,28,0.00014
3586,3.586,27,0.000135
3587,3.587,26,0.00013
3588,3.588,25,0.000125
3589,3.589,26,0.00013
3590,3.59,27,0.000135
3591,3.591,29,0.000145
3592,3.592,30,0.00015
3593,3.593,31,0.000155
3594,3.594,31,0.000155
3595,3.595,31,0.000155
3596,3.596,31,0.000155
3597,3.597,30,0.00015
3598,3.598,30,0.00015
3599,3.599,29,0.000145
3600,3.6,29,0.000145
3601,3.601,29,0.000145
3602,3.602,29,0.000145
3603,3.603,30,0.00015
3604,3.604,30,0.00015
3605,3.605,31,0.000155
3606,3.606,31,0.000155
3607,3.607,32,0.00016
3608,3.608,32,0.00016
3609,3.609,33,0.000165
3610,3.61,33,0.000165
3611,3.611,33,0.000165
3612,3.612,33,0.000165
3613,3.613,33,0.000165
3614,3.614,33,0.000165
3615,3.615,33,0.000165
3616,3.616,33,0.000165
3617,3.617,32,0.00016
3618,3.618,32,0.00016
3619,3.619,32,0.00016
3620,3.62,32,0.00016
3621,3.621,32,0.00016
3622,3.622,32,0.00016
3623,3.623,32,0.00016
3624,3.624,32,0.00016
3625,3.625,31,0.000155
3626,3.626,30,0.00015
3627,3.627,29,0.000145
3628,3.628,29,0.000145
3629,3.629,27,0.000135
3630,3.63,24,0.00012
3631,3.631,22,0.00011
3632,3.632,20,0.0001
3633,3.633,21,0.000105
3634,3.634,22,0.00011
3635,3.635,24,0.00012
3636,3.636,25,0.000125
3637,3.637,25,0.000125
3638,3.638,24,0.00012
3639,3.639,23,0.000115
3640,3.64,22,0.00011
3641,3.641,21,0.000105
3642,3.642,21,0.000105
3643,3.643,20,0.0001
3644,3.644,20,0.0001
3645,3.645,20,0.0001
3646,3.646,20,0.0001
3647,3.647,20,0.0001
3648,3.648,20,0.0001
3649,3.649,20,0.0001
3650,3.65,20,0.0001
3651,3.651,20,0.0001
3652,3.652,20,0.0001
3653,3.653,20,0.0001
3654,3.654,20,0.0001
3655,3.655,20,0.0001
3656,3.656,20,0.0001
3657,3.657,19,9.5e-05
3658,3.658,18,9e-05
3659,3.659,17,8.5e-05
3660,3.66,17,8.5e-05
3661,3.661,16,8e-05
3662,3.662,16,8e-05
3663,3.663,16,8e-05
3664,3.664,16,8e-05
3665,3.665,13,6.5e-05
3666,3.666,11,5.5e-05
3667,3.667,8,4e-05
3668,3.668,6,3e-05
3669,3.669,5,2.5e-05
3670,3.67,3,1.5e-05
3671,3.671,2,1e-05
3672,3.672,1,5e-06
3673,3.673,-1,-5e-06
3674,3.674,-2,-1e-05
3675,3.675,-4,-2e-05
3676,3.676,-5,-2.5e-05
3677,3.677,-8,-4e-05
3678,3.678,-11,-5.5e-05
3679,3.679,-15,-7.5e-05
3680,3.68,-18,-9e-05
3681,3.681,-21,-0.000105
3682,3.682,-23,-0.000115
3683,3.683,-26,-0.00013
3684,3.684,-28,-0.00014
3685,3.685,-29,-0.000145
3686,3.686,-29,-0.000145
3687,3.687,-29,-0.000145
3688,3.688,-29,-0.000145
3689,3.689,-30,-0.00015
3690,3.69,-30,-0.00015
3691,3.691,-31,-0.000155
3692,3.692,-31,-0.000155
3693,3.693,-32,-0.00016
3694,3.694,-33,-0.000165
3695,3.695,-34,-0.00017
3696,3.696,-34,-0.00017
3697,3.697,-36,-0.00018
3698,3.698,-37,-0.000185
3699,3.699,-39,-0.000195
3700,3.7,-40,-0.0002
3701,3.701,-42,-0.00021
3702,3.702,-44,-0.00022
3703,3.703,-46,-0.00023
3704,3.704,-48,-0.00024
3705,3.705,-48,-0.00024
3706,3.706,-48,-0.00024
3707,3.707,-48,-0.00024
3708,3.708,-48,-0.00024
3709,3.709,-49,-0.000245
3710,3.71,-50,-0.00025
3711,3.711,-51,-0.000255
3712,3.712,-51,-0.000255
3713,3.713,-53,-0.000265
3714,3.714,-55,-0.000275
3715,3.715,-57,-0.000285
3716,3.716,-59,-0.000295
3717,3.717,-61,-0.000305
3718,3.718,-63,-0.000315
3719,3.719,-64,-0.00032
3720,3.72,-66,-0.00033
3721,3.721,-68,-0.00034
3722,3.722,-70,-0.00035
3723,3.723,-72,-0.00036
3724,3.724,-74,-0.00037
3725,3.725,-77,-0.000385
3726,3.726,-80,-0.0004
3727,3.727,-83,-0.000415
3728,3.728,-86,-0.00043
3729,3.729,-87,-0.000435
3730,3.73,-87,-0.000435
3731,3.731,-87,-0.000435
3732,3.732,-87,-0.000435
3733,3.733,-88,-0.00044
3734,3.734,-90,-0.00045
3735,3.735,-91,-0.000455
3736,3.736,-92,-0.00046
3737,3.737,-93,-0.000465
3738,3.738,-95,-0.000475
3739,3.739,-96,-0.00048
3740,3.74,-97,-0.000485
3741,3.741,-97,-0.000485
3742,3.742,-97,-0.000485
3743,3.743,-97,-0.000485
3744,3.744,-97,-0.000485
3745,3.745,-98,-0.00049
3746,3.746,-98,-0.00049
3747,3.747,-99,-0.000495
3748,3.748,-99,-0.000495
3749,3.749,-100,-0.0005
3750,3.75,-101,-0.000505
3751,3.751,-102,-0.00051
3752,3.752,-103,-0.000515
3753,3.753,-103,-0.000515
3754,3.754,-103,-0.000515
3755,3.755,-102,-0.00051
3756,3.756,-102,-0.00051
3757,3.757,-100,-0.0005
3758,3.758,-98,-0.00049
3759,3.759,-97,-0.000485
3760,3.76,-95,-0.000475
3761,3.761,-94,-0.00047
3762,3.762,-94,-0.00047
3763,3.763,-94,-0.00047
3764,3.764,-94,-0.00047
3765,3.765,-94,-0.00047
3766,3.766,-94,-0.00047
3767,3.767,-93,-0.000465
3768,3.768,-93,-0.000465
3769,3.769,-91,-0.000455
3770,3.77,-90,-0.00045
3771,3.771,-88,-0.00044
3772,3.772,-87,-0.000435
3773,3.773,-84,-0.00042
3774,3.774,-81,-0.000405
3775,3.775,-78,-0.00039
3776,3.776,-75,-0.000375
3777,3.777,-73,-0.000365
3778,3.778,-71,-0.000355
3779,3.779,-70,-0.00035
3780,3.78,-68,-0.00034
3781,3.781,-65,-0.000325
3782,3.782,-62,-0.00031
3783,3.783,-59,-0.000295
3784,3.784,-56,-0.00028
3785,3.785,-53,-0.000265
3786,3.786,-51,-0.000255
3787,3.787,-48,-0.00024
3788,3.788,-46,-0.00023
3789,3.789,-44,-0.00022
3790,3.79,-41,-0.000205
3791,3.791,-39,-0.000195
3792,3.792,-37,-0.000185
3793,3.793,-35,-0.000175
3794,3.794,-33,-0.000165
3795,3.795,-31,-0.000155
3796,3.796,-29,-0.000145
3797,3.797,-27,-0.000135
3798,3.798,-26,-0.00013
3799,3.799,-24,-0.00012
3800,3.8,-23,-0.000115
3801,3.801,-21,-0.000105
3802,3.802,-20,-0.0001
3803,3.803,-19,-9.5e-05
3804,3.804,-18,-9e-05
3805,3.805,-16,-8e-05
3806,3.806,-14,-7e-05
3807,3.807,-12,-6e-05
3808,3.808,-10,-5e-05
3809,3.809,-8,-4e-05
3810,3.81,-6,-3e-05
3811,3.811,-5,-2.5e-05
3812,3.812,-3,-1.5e-05
3813,3.813,-1,-5e-06
3814,3.814,2,1e-05
3815,3.815,4,2e-05
3816,3.816,6,3e-05
3817,3.817,8,4e-05
3818,3.818,10,5e-05
3819,3.819,11,5.5e-05
3820,3.82,13,6.5e-05
3821,3.821,16,8e-05
3822,3.822,19,9.5e-05
3823,3.823,23,0.000115
3824,3.824,26,0.00013
3825,3.825,27,0.000135
3826,3.826,28,0.00014
3827,3.827,29,0.000145
3828,3.828,30,0.00015
3829,3.829,33,0.000165
3830,3.83,35,0.000175
3831,3.831,38,0.00019
3832,3.832,40,0.0002
3833,3.833,42,0.00021
3834,3.834,44,0.00022
3835,3.835,46,0.00023
3836,3.836,48,0.00024
3837,3.837,50,0.00025
3838,3.838,51,0.000255
3839,3.839,53,0.000265
3840,3.84,54,0.00027
3841,3.841,55,0.000275
3842,3.842,55,0.000275
3843,3.843,55,0.000275
3844,3.844,55,0.000275
3845,3.845,57,0.000285
3846,3.846,58,0.00029
3847,3.847,60,0.0003
3848,3.848,61,0.000305
3849,3.849,62,0.00031
3850,3.85,62,0.00031
3851,3.851,62,0.00031
3852,3.852,62,0.00031
3853,3.853,63,0.000315
3854,3.854,63,0.000315
3855,3.855,64,0.00032
3856,3.856,64,0.00032
3857,3.857,64,0.00032
3858,3.858,64,0.00032
3859,3.859,64,0.00032
3860,3.86,64,0.00032
3861,3.861,64,0.00032
3862,3.862,64,0.00032
3863,3.863,64,0.00032
3864,3.864,64,0.00032
3865,3.865,64,0.00032
3866,3.866,65,0.000325
3867,3.867,66,0.00033
3868,3.868,67,0.000335
3869,3.869,67,0.000335
3870,3.87,66,0.00033
3871,3.871,65,0.000325
3872,3.872,65,0.000325
3873,3.873,65,0.000325
3874,3.874,66,0.00033
3875,3.875,67,0.000335
3876,3.876,67,0.000335
3877,3.877,68,0.00034
3878,3.878,68,0.00034
3879,3.879,68,0.00034
3880,3.88,68,0.00034
3881,3.881,67,0.000335
3882,3.882,67,0.000335
3883,3.883,66,0.00033
3884,3.884,66,0.00033
3885,3.885,65,0.000325
3886,3.886,65,0.000325
3887,3.887,65,0.000325
3888,3.888,65,0.000325
3889,3.889,64,0.00032
3890,3.89,63,0.000315
3891,3.891,62,0.00031
3892,3.892,62,0.00031
3893,3.893,61,0.000305
3894,3.894,60,0.0003
3895,3.895,59,0.000295
3896,3.896,58,0.00029
3897,3.897,57,0.000285
3898,3.898,56,0.00028
3899,3.899,55,0.000275
3900,3.9,54,0.00027
3901,3.901,53,0.000265
3902,3.902,52,0.00026
3903,3.903,51,0.000255
3904,3.904,50,0.00025
3905,3.905,48,0.00024
3906,3.906,47,0.000235
3907,3.907,45,0.000225
3908,3.908,44,0.00022
3909,3.909,43,0.000215
3910,3.91,43,0.000215
3911,3.911,42,0.00021
3912,3.912,42,0.00021
3913,3.913,42,0.00021
3914,3.914,42,0.00021
3915,3.915,42,0.00021
3916,3.916,42,0.00021
3917,3.917,42,0.00021
3918,3.918,43,0.000215
3919,3.919,44,0.00022
3920,3.92,44,0.00022
3921,3.921,45,0.000225
3922,3.922,45,0.000225
3923,3.923,45,0.000225
3924,3.924,45,0.000225
3925,3.925,45,0.000225
3926,3.926,45,0.000225
3927,3.927,44,0.00022
3928,3.928,44,0.00022
3929,3.929,43,0.000215
3930,3.93,42,0.00021
3931,3.931,41,0.000205
3932,3.932,40,0.0002
3933,3.933,39,0.000195
3934,3.934,39,0.000195
3935,3.935,38,0.00019
3936,3.936,38,0.00019
3937,3.937,37,0.000185
3938,3.938,36,0.00018
3939,3.939,35,0.000175
3940,3.94,34,0.00017
3941,3.941,32,0.00016
3942,3.942,30,0.00015
3943,3.943,28,0.00014
3944,3.944,26,0.00013
3945,3.945,25,0.000125
3946,3.946,25,0.000125
3947,3.947,24,0.00012
3948,3.948,24,0.00012
3949,3.949,24,0.00012
3950,3.95,24,0.00012
3951,3.951,24,0.00012
3952,3.952,24,0.00012
3953,3.953,23,0.000115
3954,3.954,22,0.00011
3955,3.955,21,0.000105
3956,3.956,20,0.0001
3957,3.957,19,9.5e-05
3958,3.958,19,9.5e-05
3959,3.959,18,9e-05
3960,3.96,18,9e-05
3961,3.961,18,9e-05
3962,3.962,18,9e-05
3963,3.963,19,9.5e-05
3964,3.964,19,9.5e-05
3965,3.965,20,0.0001
3966,3.966,21,0.000105
3967,3.967,22,0.00011
3968,3.968,23,0.000115
3969,3.969,23,0.000115
3970,3.97,21,0.000105
3971,3.971,20,0.0001
3972,3.972,19,9.5e-05
3973,3.973,20,0.0001
3974,3.974,22,0.00011
3975,3.975,23,0.000115
3976,3.976,25,0.000125
3977,3.977,25,0.000125
3978,3.978,23,0.000115
3979,3.979,22,0.00011
3980,3.98,21,0.000105
3981,3.981,19,9.5e-05
3982,3.982,17,8.5e-05
3983,3.983,16,8e-05
3984,3.984,14,7e-05
3985,3.985,13,6.5e-05
3986,3.986,13,6.5e-05
3987,3.987,12,6e-05
3988,3.988,12,6e-05
3989,3.989,11,5.5e-05
3990,3.99,11,5.5e-05
3991,3.991,10,5e-05
3992,3.992,10,5e-05
3993,3.993,10,5e-05
3994,3.994,10,5e-05
3995,3.995,10,5e-05
3996,3.996,10,5e-05
3997,3.997,10,5e-05
3998,3.998,11,5.5e-05
3999,3.999,12,6e-05
4000,4.0,12,6e-05
4001,4.001,12,6e-05
4002,4.002,11,5.5e-05
4003,4.003,10,5e-05
4004,4.004,9,4.5e-05
4005,4.005,9,4.5e-05
4006,4.006,9,4.5e-05
4007,4.007,9,4.5e-05
4008,4.008,9,4.5e-05
4009,4.009,9,4.5e-05
4010,4.01,9,4.5e-05
4011,4.011,10,5e-05
4012,4.012,10,5e-05
4013,4.013,11,5.5e-05
4014,4.014,12,6e-05
4015,4.015,13,6.5e-05
4016,4.016,13,6.5e-05
4017,4.017,15,7.5e-05
4018,4.018,16,8e-05
4019,4.019,17,8.5e-05
4020,4.02,18,9e-05
4021,4.021,18,9e-05
4022,4.022,17,8.5e-05
4023,4.023,16,8e-05
4024,4.024,16,8e-05
4025,4.025,15,7.5e-05
4026,4.026,14,7e-05
4027,4.027,13,6.5e-05
4028,4.028,13,6.5e-05
4029,4.029,11,5.5e-05
4030,4.03,10,5e-05
4031,4.031,8,4e-05
4032,4.032,7,3.5e-05
4033,4.033,7,3.5e-05
4034,4.034,7,3.5e-05
4035,4.035,7,3.5e-05
4036,4.036,7,3.5e-05
4037,4.037,7,3.5e-05
4038,4.038,6,3e-05
4039,4.039,5,2.5e-05
4040,4.04,5,2.5e-05
4041,4.041,5,2.5e-05
4042,4.042,5,2.5e-05
4043,4.043,5,2.5e-05
4044,4.044,5,2.5e-05
4045,4.045,5,2.5e-05
4046,4.046,5,2.5e-05
4047,4.047,5,2.5e-05
4048,4.048,5,2.5e-05
4049,4.049,6,3e-05
4050,4.05,7,3.5e-05
4051,4.051,8,4e-05
4052,4.052,8,4e-05
4053,4.053,8,4e-05
4054,4.054,8,4e-05
4055,4.055,8,4e-05
4056,4.056,8,4e-05
4057,4.057,8,4e-05
4058,4.058,9,4.5e-05
4059,4.059,10,5e-05
4060,4.06,10,5e-05
4061,4.061,12,6e-05
4062,4.062,13,6.5e-05
4063,4.063,15,7.5e-05
4064,4.064,16,8e-05
4065,4.065,15,7.5e-05
4066,4.066,14,7e-05
4067,4.067,12,6e-05
4068,4.068,11,5.5e-05
4069,4.069,11,5.5e-05
4070,4.07,11,5.5e-05
4071,4.071,12,6e-05
4072,4.072,12,6e-05
4073,4.073,11,5.5e-05
4074,4.074,9,4.5e-05
4075,4.075,8,4e-05
4076,4.076,6,3e-05
4077,4.077,5,2.5e-05
4078,4.078,3,1.5e-05
4079,4.079,2,1e-05
4080,4.08,1,5e-06
4081,4.081,1,5e-06
4082,4.082,1,5e-06
4083,4.083,1,5e-06
4084,4.084,1,5e-06
4085,4.085,2,1e-05
4086,4.086,4,2e-05
4087,4.087,5,2.5e-05
4088,4.088,7,3.5e-05
4089,4.089,7,3.5e-05
4090,4.09,6,3e-05
4091,4.091,5,2.5e-05
4092,4.092,4,2e-05
4093,4.093,4,2e-05
4094,4.094,4,2e-05
4095,4.095,5,2.5e-05
4096,4.096,5,2.5e-05
4097,4.097,6,3e-05
4098,4.098,7,3.5e-05
4099,4.099,8,4e-05
4100,4.1,8,4e-05
4101,4.101,9,4.5e-05
4102,4.102,9,4.5e-05
4103,4.103,9,4.5e-05
4104,4.104,9,4.5e-05
4105,4.105,9,4.5e-05
4106,4.106,9,4.5e-05
4107,4.107,8,4e-05
4108,4.108,8,4e-05
4109,4.109,8,4e-05
4110,4.11,8,4e-05
4111,4.111,8,4e-05
4112,4.112,8,4e-05
4113,4.113,9,4.5e-05
4114,4.114,9,4.5e-05
4115,4.115,9,4.5e-05
4116,4.116,9,4.5e-05
4117,4.117,9,4.5e-05
4118,4.118,9,4.5e-05
4119,4.119,9,4.5e-05
4120,4.12,9,4.5e-05
4121,4.121,8,4e-05
4122,4.122,7,3.5e-05
4123,4.123,6,3e-05
4124,4.124,6,3e-05
4125,4.125,6,3e-05
4126,4.126,6,3e-05
4127,4.127,7,3.5e-05
4128,4.128,7,3.5e-05
4129,4.129,9,4.5e-05
4130,4.13,11,5.5e-05
4131,4.131,13,6.5e-05
4132,4.132,15,7.5e-05
4133,4.133,17,8.5e-05
4134,4.134,18,9e-05
4135,4.135,20,0.0001
4136,4.136,21,0.000105
4137,4.137,22,0.00011
4138,4.138,23,0.000115
4139,4.139,24,0.00012
4140,4.14,24,0.00012
4141,4.141,27,0.000135
4142,4.142,29,0.000145
4143,4.143,32,0.00016
4144,4.144,35,0.000175
4145,4.145,37,0.000185
4146,4.146,38,0.00019
4147,4.147,40,0.0002
4148,4.148,41,0.000205
4149,4.149,42,0.00021
4150,4.15,43,0.000215
4151,4.151,44,0.00022
4152,4.152,44,0.00022
4153,4.153,45,0.000225
4154,4.154,45,0.000225
4155,4.155,45,0.000225
4156,4.156,45,0.000225
4157,4.157,46,0.00023
4158,4.158,46,0.00023
4159,4.159,46,0.00023
4160,4.16,46,0.00023
4161,4.161,47,0.000235
4162,4.162,48,0.00024
4163,4.163,49,0.000245
4164,4.164,50,0.00025
4165,4.165,49,0.000245
4166,4.166,47,0.000235
4167,4.167,46,0.00023
4168,4.168,44,0.00022
4169,4.169,42,0.00021
4170,4.17,40,0.0002
4171,4.171,39,0.000195
4172,4.172,37,0.000185
4173,4.173,37,0.000185
4174,4.174,38,0.00019
4175,4.175,39,0.000195
4176,4.176,39,0.000195
4177,4.177,41,0.000205
4178,4.178,42,0.00021
4179,4.179,44,0.00022
4180,4.18,45,0.000225
4181,4.181,45,0.000225
4182,4.182,44,0.00022
4183,4.183,43,0.000215
4184,4.184,43,0.000215
4185,4.185,41,0.000205
4186,4.186,40,0.0002
4187,4.187,38,0.00019
4188,4.188,37,0.000185
4189,4.189,37,0.000185
4190,4.19,37,0.000185
4191,4.191,38,0.00019
4192,4.192,38,0.00019
4193,4.193,38,0.00019
4194,4.194,36,0.00018
4195,4.195,35,0.000175
4196,4.196,34,0.00017
4197,4.197,33,0.000165
4198,4.198,33,0.000165
4199,4.199,32,0.00016
4200,4.2,32,0.00016
4201,4.201,30,0.00015
4202,4.202,29,0.000145
4203,4.203,27,0.000135
4204,4.204,26,0.00013
4205,4.205,25,0.000125
4206,4.206,24,0.00012
4207,4.207,23,0.000115
4208,4.208,23,0.000115
4209,4.209,22,0.00011
4210,4.21,22,0.00011
4211,4.211,21,0.000105
4212,4.212,21,0.000105
4213,4.213,19,9.5e-05
4214,4.214,17,8.5e-05
4215,4.215,15,7.5e-05
4216,4.216,13,6.5e-05
4217,4.217,11,5.5e-05
4218,4.218,9,4.5e-05
4219,4.219,8,4e-05
4220,4.22,6,3e-05
4221,4.221,4,2e-05
4222,4.222,3,1.5e-05
4223,4.223,1,5e-06
4224,4.224,0,0.0
4225,4.225,0,0.0
4226,4.226,0,0.0
4227,4.227,0,0.0
4228,4.228,0,0.0
4229,4.229,-1,-5e-06
4230,4.23,-2,-1e-05
4231,4.231,-3,-1.5e-05
4232,4.232,-4,-2e-05
4233,4.233,-5,-2.5e-05
4234,4.234,-5,-2.5e-05
4235,4.235,-5,-2.5e-05
4236,4.236,-5,-2.5e-05
4237,4.237,-4,-2e-05
4238,4.238,-2,-1e-05
4239,4.239,0,0.0
4240,4.24,2,1e-05
4241,4.241,5,2.5e-05
4242,4.242,7,3.5e-05
4243,4.243,10,5e-05
4244,4.244,12,6e-05
4245,4.245,15,7.5e-05
4246,4.246,18,9e-05
4247,4.247,21,0.000105
4248,4.248,24,0.00012
4249,4.249,29,0.000145
4250,4.25,35,0.000175
4251,4.251,41,0.000205
4252,4.252,46,0.00023
4253,4.253,57,0.000285
4254,4.254,69,0.000345
4255,4.255,82,0.00041
4256,4.256,94,0.00047
4257,4.257,107,0.000535
4258,4.258,119,0.000595
4259,4.259,132,0.00066
4260,4.26,145,0.000725
4261,4.261,156,0.00078
4262,4.262,166,0.00083
4263,4.263,177,0.000885
4264,4.264,187,0.000935
4265,4.265,195,0.000975
4266,4.266,202,0.00101
4267,4.267,210,0.00105
4268,4.268,217,0.001085
4269,4.269,219,0.001095
4270,4.27,220,0.0011
4271,4.271,221,0.001105
4272,4.272,221,0.001105
4273,4.273,210,0.00105
4274,4.274,196,0.00098
4275,4.275,181,0.000905
4276,4.276,167,0.000835
4277,4.277,132,0.00066
4278,4.278,92,0.00046
4279,4.279,51,0.000255
4280,4.28,11,5.5e-05
4281,4.281,-31,-0.000155
4282,4.282,-74,-0.00037
4283,4.283,-117,-0.000585
4284,4.284,-159,-0.000795
4285,4.285,-187,-0.000935
4286,4.286,-211,-0.001055
4287,4.287,-235,-0.001175
4288,4.288,-258,-0.00129
4289,4.289,-271,-0.001355
4290,4.29,-280,-0.0014
4291,4.291,-289,-0.001445
4292,4.292,-298,-0.00149
4293,4.293,-298,-0.00149
4294,4.294,-296,-0.00148
4295,4.295,-295,-0.001475
4296,4.296,-293,-0.001465
4297,4.297,-285,-0.001425
4298,4.298,-276,-0.00138
4299,4.299,-267,-0.001335
4300,4.3,-257,-0.001285
4301,4.301,-245,-0.001225
4302,4.302,-231,-0.001155
4303,4.303,-218,-0.00109
4304,4.304,-204,-0.00102
4305,4.305,-190,-0.00095
4306,4.306,-176,-0.00088
4307,4.307,-162,-0.00081
4308,4.308,-148,-0.00074
4309,4.309,-138,-0.00069
4310,4.31,-129,-0.000645
4311,4.311,-120,-0.0006
4312,4.312,-110,-0.00055
4313,4.313,-104,-0.00052
4314,4.314,-97,-0.000485
4315,4.315,-91,-0.000455
4316,4.316,-85,-0.000425
4317,4.317,-80,-0.0004
4318,4.318,-75,-0.000375
4319,4.319,-70,-0.00035
4320,4.32,-65,-0.000325
4321,4.321,-63,-0.000315
4322,4.322,-62,-0.00031
4323,4.323,-60,-0.0003
4324,4.324,-59,-0.000295
4325,4.325,-58,-0.00029
4326,4.326,-57,-0.000285
4327,4.327,-56,-0.00028
4328,4.328,-56,-0.00028
4329,4.329,-56,-0.00028
4330,4.33,-56,-0.00028
4331,4.331,-57,-0.000285
4332,4.332,-57,-0.000285
4333,4.333,-56,-0.00028
4334,4.334,-54,-0.00027
4335,4.335,-53,-0.000265
4336,4.336,-51,-0.000255
4337,4.337,-49,-0.000245
4338,4.338,-46,-0.00023
4339,4.339,-44,-0.00022
4340,4.34,-42,-0.00021
4341,4.341,-42,-0.00021
4342,4.342,-43,-0.000215
4343,4.343,-44,-0.00022
4344,4.344,-44,-0.00022
4345,4.345,-45,-0.000225
4346,4.346,-45,-0.000225
4347,4.347,-45,-0.000225
4348,4.348,-45,-0.000225
4349,4.349,-47,-0.000235
4350,4.35,-49,-0.000245
4351,4.351,-50,-0.00025
4352,4.352,-52,-0.00026
4353,4.353,-52,-0.00026
4354,4.354,-52,-0.00026
4355,4.355,-51,-0.000255
4356,4.356,-51,-0.000255
4357,4.357,-50,-0.00025
4358,4.358,-49,-0.000245
4359,4.359,-48,-0.00024
4360,4.36,-48,-0.00024
4361,4.361,-48,-0.00024
4362,4.362,-48,-0.00024
4363,4.363,-49,-0.000245
4364,4.364,-49,-0.000245
4365,4.365,-50,-0.00025
4366,4.366,-50,-0.00025
4367,4.367,-51,-0.000255
4368,4.368,-51,-0.000255
4369,4.369,-51,-0.000255
4370,4.37,-51,-0.000255
4371,4.371,-51,-0.000255
4372,4.372,-51,-0.000255
4373,4.373,-52,-0.00026
4374,4.374,-52,-0.00026
4375,4.375,-52,-0.00026
4376,4.376,-52,-0.00026
4377,4.377,-51,-0.000255
4378,4.378,-49,-0.000245
4379,4.379,-48,-0.00024
4380,4.38,-46,-0.00023
4381,4.381,-46,-0.00023
4382,4.382,-48,-0.00024
4383,4.383,-49,-0.000245
4384,4.384,-50,-0.00025
4385,4.385,-50,-0.00025
4386,4.386,-50,-0.00025
4387,4.387,-50,-0.00025
4388,4.388,-50,-0.00025
4389,4.389,-50,-0.00025
4390,4.39,-49,-0.000245
4391,4.391,-48,-0.00024
4392,4.392,-48,-0.00024
4393,4.393,-49,-0.000245
4394,4.394,-50,-0.00025
4395,4.395,-52,-0.00026
4396,4.396,-53,-0.000265
4397,4.397,-53,-0.000265
4398,4.398,-52,-0.00026
4399,4.399,-51,-0.000255
4400,4.4,-51,-0.000255
4401,4.401,-51,-0.000255
4402,4.402,-53,-0.000265
4403,4.403,-54,-0.00027
4404,4.404,-55,-0.000275
4405,4.405,-55,-0.000275
4406,4.406,-55,-0.000275
4407,4.407,-55,-0.000275
4408,4.408,-55,-0.000275
4409,4.409,-56,-0.00028
4410,4.41,-56,-0.00028
4411,4.411,-56,-0.00028
4412,4.412,-56,-0.00028
4413,4.413,-56,-0.00028
4414,4.414,-56,-0.00028
4415,4.415,-56,-0.00028
4416,4.416,-56,-0.00028
4417,4.417,-55,-0.000275
4418,4.418,-54,-0.00027
4419,4.419,-53,-0.000265
4420,4.42,-53,-0.000265
4421,4.421,-52,-0.00026
4422,4.422,-52,-0.00026
4423,4.423,-52,-0.00026
4424,4.424,-52,-0.00026
4425,4.425,-52,-0.00026
4426,4.426,-53,-0.000265
4427,4.427,-54,-0.00027
4428,4.428,-55,-0.000275
4429,4.429,-56,-0.00028
4430,4.43,-56,-0.00028
4431,4.431,-56,-0.00028
4432,4.432,-56,-0.00028
4433,4.433,-57,-0.000285
4434,4.434,-58,-0.00029
4435,4.435,-59,-0.000295
4436,4.436,-59,-0.000295
4437,4.437,-61,-0.000305
4438,4.438,-62,-0.00031
4439,4.439,-64,-0.00032
4440,4.44,-65,-0.000325
4441,4.441,-66,-0.00033
4442,4.442,-67,-0.000335
4443,4.443,-68,-0.00034
4444,4.444,-69,-0.000345
4445,4.445,-70,-0.00035
4446,4.446,-71,-0.000355
4447,4.447,-72,-0.00036
4448,4.448,-73,-0.000365
4449,4.449,-75,-0.000375
4450,4.45,-77,-0.000385
4451,4.451,-79,-0.000395
4452,4.452,-81,-0.000405
4453,4.453,-82,-0.00041
4454,4.454,-83,-0.000415
4455,4.455,-84,-0.00042
4456,4.456,-85,-0.000425
4457,4.457,-86,-0.00043
4458,4.458,-87,-0.000435
4459,4.459,-88,-0.00044
4460,4.46,-88,-0.00044
4461,4.461,-90,-0.00045
4462,4.462,-92,-0.00046
4463,4.463,-93,-0.000465
4464,4.464,-95,-0.000475
4465,4.465,-95,-0.000475
4466,4.466,-95,-0.000475
4467,4.467,-95,-0.000475
4468,4.468,-95,-0.000475
4469,4.469,-96,-0.00048
4470,4.47,-97,-0.000485
4471,4.471,-98,-0.00049
4472,4.472,-99,-0.000495
4473,4.473,-101,-0.000505
4474,4.474,-102,-0.00051
4475,4.475,-104,-0.00052
4476,4.476,-105,-0.000525
4477,4.477,-106,-0.00053
4478,4.478,-108,-0.00054
4479,4.479,-109,-0.000545
4480,4.48,-110,-0.00055
4481,4.481,-112,-0.00056
4482,4.482,-114,-0.00057
4483,4.483,-117,-0.000585
4484,4.484,-119,-0.000595
4485,4.485,-122,-0.00061
4486,4.486,-124,-0.00062
4487,4.487,-127,-0.000635
4488,4.488,-130,-0.00065
4489,4.489,-131,-0.000655
4490,4.49,-132,-0.00066
4491,4.491,-133,-0.000665
4492,4.492,-134,-0.00067
4493,4.493,-136,-0.00068
4494,4.494,-138,-0.00069
4495,4.495,-141,-0.000705
4496,4.496,-143,-0.000715
4497,4.497,-145,-0.000725
4498,4.498,-148,-0.00074
4499,4.499,-150,-0.00075
4500,4.5,-153,-0.000765
4501,4.501,-154,-0.00077
4502,4.502,-155,-0.000775
4503,4.503,-156,-0.00078
4504,4.504,-156,-0.00078
4505,4.505,-157,-0.000785
4506,4.506,-157,-0.000785
4507,4.507,-158,-0.00079
4508,4.508,-158,-0.00079
4509,4.509,-158,-0.00079
4510,4.51,-158,-0.00079
4511,4.511,-158,-0.00079
4512,4.512,-158,-0.00079
4513,4.513,-159,-0.000795
4514,4.514,-160,-0.0008
4515,4.515,-161,-0.000805
4516,4.516,-161,-0.000805
4517,4.517,-162,-0.00081
4518,4.518,-163,-0.000815
4519,4.519,-164,-0.00082
4520,4.52,-165,-0.000825
4521,4.521,-167,-0.000835
4522,4.522,-168,-0.00084
4523,4.523,-170,-0.00085
4524,4.524,-171,-0.000855
4525,4.525,-173,-0.000865
4526,4.526,-175,-0.000875
4527,4.527,-176,-0.00088
4528,4.528,-178,-0.00089
4529,4.529,-179,-0.000895
4530,4.53,-180,-0.0009
4531,4.531,-181,-0.000905
4532,4.532,-182,-0.00091
4533,4.533,-184,-0.00092
4534,4.534,-185,-0.000925
4535,4.535,-187,-0.000935
4536,4.536,-188,-0.00094
4537,4.537,-188,-0.00094
4538,4.538,-188,-0.00094
4539,4.539,-188,-0.00094
4540,4.54,-188,-0.00094
4541,4.541,-187,-0.000935
4542,4.542,-186,-0.00093
4543,4.543,-185,-0.000925
4544,4.544,-185,-0.000925
4545,4.545,-185,-0.000925
4546,4.546,-186,-0.00093
4547,4.547,-187,-0.000935
4548,4.548,-187,-0.000935
4549,4.549,-187,-0.000935
4550,4.55,-185,-0.000925
4551,4.551,-184,-0.00092
4552,4.552,-183,-0.000915
4553,4.553,-180,-0.0009
4554,4.554,-178,-0.00089
4555,4.555,-175,-0.000875
4556,4.556,-172,-0.00086
4557,4.557,-170,-0.00085
4558,4.558,-167,-0.000835
4559,4.559,-165,-0.000825
4560,4.56,-163,-0.000815
4561,4.561,-161,-0.000805
4562,4.562,-160,-0.0008
4563,4.563,-158,-0.00079
4564,4.564,-157,-0.000785
4565,4.565,-155,-0.000775
4566,4.566,-152,-0.00076
4567,4.567,-150,-0.00075
4568,4.568,-148,-0.00074
4569,4.569,-145,-0.000725
4570,4.57,-141,-0.000705
4571,4.571,-137,-0.000685
4572,4.572,-133,-0.000665
4573,4.573,-131,-0.000655
4574,4.574,-128,-0.00064
4575,4.575,-126,-0.00063
4576,4.576,-124,-0.00062
4577,4.577,-122,-0.00061
4578,4.578,-120,-0.0006
4579,4.579,-119,-0.000595
4580,4.58,-117,-0.000585
4581,4.581,-113,-0.000565
4582,4.582,-109,-0.000545
4583,4.583,-105,-0.000525
4584,4.584,-101,-0.000505
4585,4.585,-98,-0.00049
4586,4.586,-94,-0.00047
4587,4.587,-91,-0.000455
4588,4.588,-87,-0.000435
4589,4.589,-84,-0.00042
4590,4.59,-80,-0.0004
4591,4.591,-77,-0.000385
4592,4.592,-73,-0.000365
4593,4.593,-70,-0.00035
4594,4.594,-66,-0.00033
4595,4.595,-63,-0.000315
4596,4.596,-59,-0.000295
4597,4.597,-56,-0.00028
4598,4.598,-53,-0.000265
4599,4.599,-50,-0.00025
4600,4.6,-47,-0.000235
4601,4.601,-45,-0.000225
4602,4.602,-43,-0.000215
4603,4.603,-41,-0.000205
4604,4.604,-39,-0.000195
4605,4.605,-36,-0.00018
4606,4.606,-33,-0.000165
4607,4.607,-29,-0.000145
4608,4.608,-26,-0.00013
4609,4.609,-25,-0.000125
4610,4.61,-24,-0.00012
4611,4.611,-23,-0.000115
4612,4.612,-22,-0.00011
4613,4.613,-21,-0.000105
4614,4.614,-21,-0.000105
4615,4.615,-21,-0.000105
4616,4.616,-21,-0.000105
4617,4.617,-21,-0.000105
4618,4.618,-23,-0.000115
4619,4.619,-24,-0.00012
4620,4.62,-25,-0.000125
4621,4.621,-25,-0.000125
4622,4.622,-24,-0.00012
4623,4.623,-23,-0.000115
4624,4.624,-22,-0.00011
4625,4.625,-21,-0.000105
4626,4.626,-21,-0.000105
4627,4.627,-20,-0.0001
4628,4.628,-20,-0.0001
4629,4.629,-19,-9.5e-05
4630,4.63,-19,-9.5e-05
4631,4.631,-19,-9.5e-05
4632,4.632,-19,-9.5e-05
4633,4.633,-19,-9.5e-05
4634,4.634,-19,-9.5e-05
4635,4.635,-20,-0.0001
4636,4.636,-20,-0.0001
4637,4.637,-20,-0.0001
4638,4.638,-20,-0.0001
4639,4.639,-20,-0.0001
4640,4.64,-20,-0.0001
4641,4.641,-20,-0.0001
4642,4.642,-20,-0.0001
4643,4.643,-20,-0.0001
4644,4.644,-20,-0.0001
4645,4.645,-20,-0.0001
4646,4.646,-19,-9.5e-05
4647,4.647,-18,-9e-05
4648,4.648,-18,-9e-05
4649,4.649,-17,-8.5e-05
4650,4.65,-17,-8.5e-05
4651,4.651,-17,-8.5e-05
4652,4.652,-17,-8.5e-05
4653,4.653,-18,-9e-05
4654,4.654,-18,-9e-05
4655,4.655,-19,-9.5e-05
4656,4.656,-19,-9.5e-05
4657,4.657,-19,-9.5e-05
4658,4.658,-19,-9.5e-05
4659,4.659,-18,-9e-05
4660,4.66,-18,-9e-05
4661,4.661,-17,-8.5e-05
4662,4.662,-17,-8.5e-05
4663,4.663,-17,-8.5e-05
4664,4.664,-17,-8.5e-05
4665,4.665,-17,-8.5e-05
4666,4.666,-17,-8.5e-05
4667,4.667,-17,-8.5e-05
4668,4.668,-17,-8.5e-05
4669,4.669,-17,-8.5e-05
4670,4.67,-17,-8.5e-05
4671,4.671,-17,-8.5e-05
4672,4.672,-17,-8.5e-05
4673,4.673,-17,-8.5e-05
4674,4.674,-15,-7.5e-05
4675,4.675,-14,-7e-05
4676,4.676,-13,-6.5e-05
4677,4.677,-12,-6e-05
4678,4.678,-12,-6e-05
4679,4.679,-12,-6e-05
4680,4.68,-12,-6e-05
4681,4.681,-11,-5.5e-05
4682,4.682,-9,-4.5e-05
4683,4.683,-8,-4e-05
4684,4.684,-7,-3.5e-05
4685,4.685,-6,-3e-05
4686,4.686,-6,-3e-05
4687,4.687,-6,-3e-05
4688,4.688,-6,-3e-05
4689,4.689,-6,-3e-05
4690,4.69,-5,-2.5e-05
4691,4.691,-4,-2e-05
4692,4.692,-3,-1.5e-05
4693,4.693,-3,-1.5e-05
4694,4.694,-4,-2e-05
4695,4.695,-5,-2.5e-05
4696,4.696,-6,-3e-05
4697,4.697,-6,-3e-05
4698,4.698,-5,-2.5e-05
4699,4.699,-4,-2e-05
4700,4.7,-3,-1.5e-05
4701,4.701,-3,-1.5e-05
4702,4.702,-3,-1.5e-05
4703,4.703,-4,-2e-05
4704,4.704,-4,-2e-05
4705,4.705,-5,-2.5e-05
4706,4.706,-6,-3e-05
4707,4.707,-7,-3.5e-05
4708,4.708,-7,-3.5e-05
4709,4.709,-9,-4.5e-05
4710,4.71,-11,-5.5e-05
4711,4.711,-12,-6e-05
4712,4.712,-14,-7e-05
4713,4.713,-15,-7.5e-05
4714,4.714,-17,-8.5e-05
4715,4.715,-18,-9e-05
4716,4.716,-19,-9.5e-05
4717,4.717,-19,-9.5e-05
4718,4.718,-19,-9.5e-05
4719,4.719,-19,-9.5e-05
4720,4.72,-19,-9.5e-05
4721,4.721,-19,-9.5e-05
4722,4.722,-19,-9.5e-05
4723,4.723,-19,-9.5e-05
4724,4.724,-19,-9.5e-05
4725,4.725,-20,-0.0001
4726,4.726,-20,-0.0001
4727,4.727,-20,-0.0001
4728,4.728,-20,-0.0001
4729,4.729,-21,-0.000105
4730,4.73,-22,-0.00011
4731,4.731,-23,-0.000115
4732,4.732,-23,-0.000115
4733,4.733,-24,-0.00012
4734,4.734,-24,-0.00012
4735,4.735,-24,-0.00012
4736,4.736,-24,-0.00012
4737,4.737,-25,-0.000125
4738,4.738,-25,-0.000125
4739,4.739,-26,-0.00013
4740,4.74,-26,-0.00013
4741,4.741,-26,-0.00013
4742,4.742,-26,-0.00013
4743,4.743,-26,-0.00013
4744,4.744,-26,-0.00013
4745,4.745,-27,-0.000135
4746,4.746,-28,-0.00014
4747,4.747,-29,-0.000145
4748,4.748,-29,-0.000145
4749,4.749,-29,-0.000145
4750,4.75,-28,-0.00014
4751,4.751,-27,-0.000135
4752,4.752,-26,-0.00013
4753,4.753,-25,-0.000125
4754,4.754,-25,-0.000125
4755,4.755,-25,-0.000125
4756,4.756,-25,-0.000125
4757,4.757,-27,-0.000135
4758,4.758,-30,-0.00015
4759,4.759,-32,-0.00016
4760,4.76,-35,-0.000175
4761,4.761,-35,-0.000175
4762,4.762,-33,-0.000165
4763,4.763,-32,-0.00016
4764,4.764,-31,-0.000155
4765,4.765,-31,-0.000155
4766,4.766,-32,-0.00016
4767,4.767,-33,-0.000165
4768,4.768,-33,-0.000165
4769,4.769,-34,-0.00017
4770,4.77,-35,-0.000175
4771,4.771,-36,-0.00018
4772,4.772,-36,-0.00018
4773,4.773,-36,-0.00018
4774,4.774,-36,-0.00018
4775,4.775,-35,-0.000175
4776,4.776,-35,-0.000175
4777,4.777,-34,-0.00017
4778,4.778,-34,-0.00017
4779,4.779,-34,-0.00017
4780,4.78,-34,-0.00017
4781,4.781,-33,-0.000165
4782,4.782,-32,-0.00016
4783,4.783,-31,-0.000155
4784,4.784,-30,-0.00015
4785,4.785,-29,-0.000145
4786,4.786,-29,-0.000145
4787,4.787,-29,-0.000145
4788,4.788,-29,-0.000145
4789,4.789,-28,-0.00014
4790,4.79,-28,-0.00014
4791,4.791,-28,-0.00014
4792,4.792,-28,-0.00014
4793,4.793,-28,-0.00014
4794,4.794,-27,-0.000135
4795,4.795,-26,-0.00013
4796,4.796,-26,-0.00013
4797,4.797,-26,-0.00013
4798,4.798,-27,-0.000135
4799,4.799,-28,-0.00014
4800,4.8,-28,-0.00014
4801,4.801,-29,-0.000145
4802,4.802,-29,-0.000145
4803,4.803,-29,-0.000145
4804,4.804,-29,-0.000145
4805,4.805,-30,-0.00015
4806,4.806,-30,-0.00015
4807,4.807,-30,-0.00015
4808,4.808,-30,-0.00015
4809,4.809,-31,-0.000155
4810,4.81,-32,-0.00016
4811,4.811,-33,-0.000165
4812,4.812,-33,-0.000165
4813,4.813,-33,-0.000165
4814,4.814,-31,-0.000155
4815,4.815,-30,-0.00015
4816,4.816,-29,-0.000145
4817,4.817,-29,-0.000145
4818,4.818,-30,-0.00015
4819,4.819,-31,-0.000155
4820,4.82,-31,-0.000155
4821,4.821,-31,-0.000155
4822,4.822,-31,-0.000155
4823,4.823,-30,-0.00015
4824,4.824,-30,-0.00015
4825,4.825,-29,-0.000145
4826,4.826,-28,-0.00014
4827,4.827,-27,-0.000135
4828,4.828,-27,-0.000135
4829,4.829,-26,-0.00013
4830,4.83,-25,-0.000125
4831,4.831,-24,-0.00012
4832,4.832,-23,-0.000115
4833,4.833,-23,-0.000115
4834,4.834,-25,-0.000125
4835,4.835,-26,-0.00013
4836,4.836,-27,-0.000135
4837,4.837,-26,-0.00013
4838,4.838,-25,-0.000125
4839,4.839,-23,-0.000115
4840,4.84,-22,-0.00011
4841,4.841,-21,-0.000105
4842,4.842,-21,-0.000105
4843,4.843,-21,-0.000105
4844,4.844,-21,-0.000105
4845,4.845,-21,-0.000105
4846,4.846,-21,-0.000105
4847,4.847,-21,-0.000105
4848,4.848,-21,-0.000105
4849,4.849,-23,-0.000115
4850,4.85,-25,-0.000125
4851,4.851,-26,-0.00013
4852,4.852,-28,-0.00014
4853,4.853,-29,-0.000145
4854,4.854,-30,-0.00015
4855,4.855,-31,-0.000155
4856,4.856,-32,-0.00016
4857,4.857,-32,-0.00016
4858,4.858,-32,-0.00016
4859,4.859,-32,-0.00016
4860,4.86,-32,-0.00016
4861,4.861,-32,-0.00016
4862,4.862,-32,-0.00016
4863,4.863,-31,-0.000155
4864,4.864,-31,-0.000155
4865,4.865,-30,-0.00015
4866,4.866,-30,-0.00015
4867,4.867,-30,-0.00015
4868,4.868,-30,-0.00015
4869,4.869,-29,-0.000145
4870,4.87,-28,-0.00014
4871,4.871,-27,-0.000135
4872,4.872,-26,-0.00013
4873,4.873,-24,-0.00012
4874,4.874,-23,-0.000115
4875,4.875,-21,-0.000105
4876,4.876,-20,-0.0001
4877,4.877,-20,-0.0001
4878,4.878,-22,-0.00011
4879,4.879,-23,-0.000115
4880,4.88,-24,-0.00012
4881,4.881,-24,-0.00012
4882,4.882,-24,-0.00012
4883,4.883,-23,-0.000115
4884,4.884,-23,-0.000115
4885,4.885,-22,-0.00011
4886,4.886,-21,-0.000105
4887,4.887,-20,-0.0001
4888,4.888,-20,-0.0001
4889,4.889,-19,-9.5e-05
4890,4.89,-19,-9.5e-05
4891,4.891,-18,-9e-05
4892,4.892,-18,-9e-05
4893,4.893,-18,-9e-05
4894,4.894,-20,-0.0001
4895,4.895,-21,-0.000105
4896,4.896,-22,-0.00011
4897,4.897,-23,-0.000115
4898,4.898,-23,-0.000115
4899,4.899,-23,-0.000115
4900,4.9,-23,-0.000115
4901,4.901,-22,-0.00011
4902,4.902,-20,-0.0001
4903,4.903,-19,-9.5e-05
4904,4.904,-17,-8.5e-05
4905,4.905,-15,-7.5e-05
4906,4.906,-13,-6.5e-05
4907,4.907,-10,-5e-05
4908,4.908,-8,-4e-05
4909,4.909,-7,-3.5e-05
4910,4.91,-5,-2.5e-05
4911,4.911,-4,-2e-05
4912,4.912,-3,-1.5e-05
4913,4.913,-2,-1e-05
4914,4.914,-1,-5e-06
4915,4.915,0,0.0
4916,4.916,0,0.0
4917,4.917,1,5e-06
4918,4.918,1,5e-06
4919,4.919,2,1e-05
4920,4.92,2,1e-05
4921,4.921,3,1.5e-05
4922,4.922,3,1.5e-05
4923,4.923,3,1.5e-05
4924,4.924,3,1.5e-05
4925,4.925,4,2e-05
4926,4.926,5,2.5e-05
4927,4.927,6,3e-05
4928,4.928,6,3e-05
4929,4.929,6,3e-05
4930,4.93,6,3e-05
4931,4.931,5,2.5e-05
4932,4.932,5,2.5e-05
4933,4.933,4,2e-05
4934,4.934,2,1e-05
4935,4.935,1,5e-06
4936,4.936,0,0.0
4937,4.937,0,0.0
4938,4.938,0,0.0
4939,4.939,0,0.0
4940,4.94,0,0.0
4941,4.941,-1,-5e-06
4942,4.942,-1,-5e-06
4943,4.943,-2,-1e-05
4944,4.944,-2,-1e-05
4945,4.945,-3,-1.5e-05
4946,4.946,-3,-1.5e-05
4947,4.947,-4,-2e-05
4948,4.948,-4,-2e-05
4949,4.949,-5,-2.5e-05
4950,4.95,-5,-2.5e-05
4951,4.951,-5,-2.5e-05
4952,4.952,-5,-2.5e-05
4953,4.953,-6,-3e-05
4954,4.954,-7,-3.5e-05
4955,4.955,-8,-4e-05
4956,4.956,-8,-4e-05
4957,4.957,-9,-4.5e-05
4958,4.958,-11,-5.5e-05
4959,4.959,-12,-6e-05
4960,4.96,-13,-6.5e-05
4961,4.961,-14,-7e-05
4962,4.962,-14,-7e-05
4963,4.963,-15,-7.5e-05
4964,4.964,-15,-7.5e-05
4965,4.965,-16,-8e-05
4966,4.966,-16,-8e-05
4967,4.967,-16,-8e-05
4968,4.968,-16,-8e-05
4969,4.969,-17,-8.5e-05
4970,4.97,-19,-9.5e-05
4971,4.971,-20,-0.0001
4972,4.972,-21,-0.000105
4973,4.973,-23,-0.000115
4974,4.974,-24,-0.00012
4975,4.975,-26,-0.00013
4976,4.976,-27,-0.000135
4977,4.977,-29,-0.000145
4978,4.978,-32,-0.00016
4979,4.979,-34,-0.00017
4980,4.98,-37,-0.000185
4981,4.981,-38,-0.00019
4982,4.982,-38,-0.00019
4983,4.983,-39,-0.000195
4984,4.984,-39,-0.000195
4985,4.985,-41,-0.000205
4986,4.986,-43,-0.000215
4987,4.987,-45,-0.000225
4988,4.988,-47,-0.000235
4989,4.989,-48,-0.00024
4990,4.99,-48,-0.00024
4991,4.991,-49,-0.000245
4992,4.992,-49,-0.000245
4993,4.993,-50,-0.00025
4994,4.994,-50,-0.00025
4995,4.995,-50,-0.00025
4996,4.996,-50,-0.00025
4997,4.997,-50,-0.00025
4998,4.998,-48,-0.00024
4999,4.999,-47,-0.000235
5000,5.0,-46,-0.00023
5001,5.001,-44,-0.00022
5002,5.002,-42,-0.00021
5003,5.003,-40,-0.0002
5004,5.004,-38,-0.00019
5005,5.005,-37,-0.000185
5006,5.006,-37,-0.000185
5007,5.007,-36,-0.00018
5008,5.008,-36,-0.00018
5009,5.009,-33,-0.000165
5010,5.01,-30,-0.00015
5011,5.011,-27,-0.000135
5012,5.012,-23,-0.000115
5013,5.013,-21,-0.000105
5014,5.014,-18,-9e-05
5015,5.015,-16,-8e-05
5016,5.016,-13,-6.5e-05
5017,5.017,-8,-4e-05
5018,5.018,-2,-1e-05
5019,5.019,5,2.5e-05
5020,5.02,11,5.5e-05
5021,5.021,20,0.0001
5022,5.022,30,0.00015
5023,5.023,40,0.0002
5024,5.024,50,0.00025
5025,5.025,64,0.00032
5026,5.026,79,0.000395
5027,5.027,94,0.00047
5028,5.028,109,0.000545
5029,5.029,122,0.00061
5030,5.03,134,0.00067
5031,5.031,147,0.000735
5032,5.032,159,0.000795
5033,5.033,169,0.000845
5034,5.034,178,0.00089
5035,5.035,187,0.000935
5036,5.036,195,0.000975
5037,5.037,201,0.001005
5038,5.038,207,0.001035
5039,5.039,212,0.00106
5040,5.04,217,0.001085
5041,5.041,216,0.00108
5042,5.042,212,0.00106
5043,5.043,208,0.00104
5044,5.044,204,0.00102
5045,5.045,180,0.0009
5046,5.046,151,0.000755
5047,5.047,121,0.000605
5048,5.048,92,0.00046
5049,5.049,50,0.00025
5050,5.05,3,1.5e-05
5051,5.051,-43,-0.000215
5052,5.052,-90,-0.00045
5053,5.053,-127,-0.000635
5054,5.054,-162,-0.00081
5055,5.055,-196,-0.00098
5056,5.056,-231,-0.001155
5057,5.057,-251,-0.001255
5058,5.058,-266,-0.00133
5059,5.059,-281,-0.001405
5060,5.06,-296,-0.00148
5061,5.061,-301,-0.001505
