sample_index,time_s,code_signed,voltage_V
0,0.0,191,0.000955
1,0.001,186,0.00093
2,0.002,181,0.000905
3,0.003,176,0.00088
4,0.004,174,0.00087
5,0.005,171,0.000855
6,0.006,169,0.000845
7,0.007,167,0.000835
8,0.008,165,0.000825
9,0.009,165,0.000825
10,0.01,165,0.000825
11,0.011,165,0.000825
12,0.012,168,0.00084
13,0.013,171,0.000855
14,0.014,174,0.00087
15,0.015,175,0.000875
16,0.016,175,0.000875
17,0.017,175,0.000875
18,0.018,173,0.000865
19,0.019,172,0.00086
20,0.02,169,0.000845
21,0.021,166,0.00083
22,0.022,162,0.00081
23,0.023,160,0.0008
24,0.024,158,0.00079
25,0.025,156,0.00078
26,0.026,153,0.000765
27,0.027,151,0.000755
28,0.028,148,0.00074
29,0.029,146,0.00073
30,0.03,143,0.000715
31,0.031,140,0.0007
32,0.032,138,0.00069
33,0.033,135,0.000675
34,0.034,130,0.00065
35,0.035,125,0.000625
36,0.036,120,0.0006
37,0.037,117,0.000585
38,0.038,115,0.000575
39,0.039,113,0.000565
40,0.04,111,0.000555
41,0.041,110,0.00055
42,0.042,109,0.000545
43,0.043,109,0.000545
44,0.044,110,0.00055
45,0.045,110,0.00055
46,0.046,111,0.000555
47,0.047,112,0.00056
48,0.048,114,0.00057
49,0.049,116,0.00058
50,0.05,118,0.00059
51,0.051,121,0.000605
52,0.052,124,0.00062
53,0.053,127,0.000635
54,0.054,130,0.00065
55,0.055,132,0.00066
56,0.056,133,0.000665
57,0.057,133,0.000665
58,0.058,132,0.00066
59,0.059,130,0.00065
60,0.06,127,0.000635
61,0.061,124,0.00062
62,0.062,120,0.0006
63,0.063,116,0.00058
64,0.064,111,0.000555
65,0.065,106,0.00053
66,0.066,101,0.000505
67,0.067,96,0.00048
68,0.068,92,0.00046
69,0.069,87,0.000435
70,0.07,82,0.00041
71,0.071,76,0.00038
72,0.072,71,0.000355
73,0.073,66,0.00033
74,0.074,62,0.00031
75,0.075,58,0.00029
76,0.076,54,0.00027
77,0.077,51,0.000255
78,0.078,47,0.000235
79,0.079,43,0.000215
80,0.08,40,0.0002
81,0.081,37,0.000185
82,0.082,35,0.000175
83,0.083,32,0.00016
84,0.084,32,0.00016
85,0.085,33,0.000165
86,0.086,34,0.00017
87,0.087,36,0.00018
88,0.088,38,0.00019
89,0.089,40,0.0002
90,0.09,41,0.000205
91,0.091,42,0.00021
92,0.092,44,0.00022
93,0.093,47,0.000235
94,0.094,50,0.00025
95,0.095,53,0.000265
96,0.096,54,0.00027
97,0.097,55,0.000275
98,0.098,57,0.000285
99,0.099,58,0.00029
100,0.1,59,0.000295
101,0.101,57,0.000285
102,0.102,56,0.00028
103,0.103,54,0.00027
104,0.104,52,0.00026
105,0.105,50,0.00025
106,0.106,48,0.00024
107,0.107,46,0.00023
108,0.108,43,0.000215
109,0.109,41,0.000205
110,0.11,39,0.000195
111,0.111,36,0.00018
112,0.112,35,0.000175
113,0.113,34,0.00017
114,0.114,34,0.00017
115,0.115,33,0.000165
116,0.116,33,0.000165
117,0.117,33,0.000165
118,0.118,34,0.00017
119,0.119,35,0.000175
120,0.12,35,0.000175
121,0.121,33,0.000165
122,0.122,32,0.00016
123,0.123,30,0.00015
124,0.124,28,0.00014
125,0.125,26,0.00013
126,0.126,24,0.00012
127,0.127,22,0.00011
128,0.128,20,0.0001
129,0.129,19,9.5e-05
130,0.13,18,9e-05
131,0.131,17,8.5e-05
132,0.132,15,7.5e-05
133,0.133,12,6e-05
134,0.134,9,4.5e-05
135,0.135,5,2.5e-05
136,0.136,0,0.0
137,0.137,-5,-2.5e-05
138,0.138,-10,-5e-05
139,0.139,-16,-8e-05
140,0.14,-22,-0.00011
141,0.141,-27,-0.000135
142,0.142,-34,-0.00017
143,0.143,-40,-0.0002
144,0.144,-47,-0.000235
145,0.145,-53,-0.000265
146,0.146,-59,-0.000295
147,0.147,-64,-0.00032
148,0.148,-69,-0.000345
149,0.149,-74,-0.00037
150,0.15,-79,-0.000395
151,0.151,-84,-0.00042
152,0.152,-89,-0.000445
153,0.153,-94,-0.00047
154,0.154,-96,-0.00048
155,0.155,-98,-0.00049
156,0.156,-101,-0.000505
157,0.157,-104,-0.00052
158,0.158,-107,-0.000535
159,0.159,-109,-0.000545
160,0.16,-111,-0.000555
161,0.161,-112,-0.00056
162,0.162,-114,-0.00057
163,0.163,-115,-0.000575
164,0.164,-116,-0.00058
165,0.165,-117,-0.000585
166,0.166,-119,-0.000595
167,0.167,-120,-0.0006
168,0.168,-121,-0.000605
169,0.169,-122,-0.00061
170,0.17,-124,-0.00062
171,0.171,-126,-0.00063
172,0.172,-129,-0.000645
173,0.173,-130,-0.00065
174,0.174,-130,-0.00065
175,0.175,-130,-0.00065
176,0.176,-130,-0.00065
177,0.177,-130,-0.00065
178,0.178,-130,-0.00065
179,0.179,-128,-0.00064
180,0.18,-126,-0.00063
181,0.181,-125,-0.000625
182,0.182,-123,-0.000615
183,0.183,-122,-0.00061
184,0.184,-121,-0.000605
185,0.185,-120,-0.0006
186,0.186,-119,-0.000595
187,0.187,-119,-0.000595
188,0.188,-118,-0.00059
189,0.189,-117,-0.000585
190,0.19,-118,-0.00059
191,0.191,-118,-0.00059
192,0.192,-119,-0.000595
193,0.193,-119,-0.000595
194,0.194,-120,-0.0006
195,0.195,-120,-0.0006
196,0.196,-120,-0.0006
197,0.197,-119,-0.000595
198,0.198,-120,-0.0006
199,0.199,-122,-0.00061
200,0.2,-123,-0.000615
201,0.201,-124,-0.00062
202,0.202,-125,-0.000625
203,0.203,-126,-0.00063
204,0.204,-125,-0.000625
205,0.205,-124,-0.00062
206,0.206,-122,-0.00061
207,0.207,-120,-0.0006
208,0.208,-118,-0.00059
209,0.209,-115,-0.000575
210,0.21,-112,-0.00056
211,0.211,-110,-0.00055
212,0.212,-106,-0.00053
213,0.213,-103,-0.000515
214,0.214,-100,-0.0005
215,0.215,-98,-0.00049
216,0.216,-96,-0.00048
217,0.217,-95,-0.000475
218,0.218,-93,-0.000465
219,0.219,-92,-0.00046
220,0.22,-90,-0.00045
221,0.221,-88,-0.00044
222,0.222,-87,-0.000435
223,0.223,-85,-0.000425
224,0.224,-84,-0.00042
225,0.225,-82,-0.00041
226,0.226,-79,-0.000395
227,0.227,-76,-0.00038
228,0.228,-73,-0.000365
229,0.229,-70,-0.00035
230,0.23,-67,-0.000335
231,0.231,-65,-0.000325
232,0.232,-65,-0.000325
233,0.233,-64,-0.00032
234,0.234,-63,-0.000315
235,0.235,-61,-0.000305
236,0.236,-59,-0.000295
237,0.237,-56,-0.00028
238,0.238,-54,-0.00027
239,0.239,-52,-0.00026
240,0.24,-51,-0.000255
241,0.241,-50,-0.00025
242,0.242,-49,-0.000245
243,0.243,-47,-0.000235
244,0.244,-46,-0.00023
245,0.245,-45,-0.000225
246,0.246,-45,-0.000225
247,0.247,-45,-0.000225
248,0.248,-47,-0.000235
249,0.249,-50,-0.00025
250,0.25,-52,-0.00026
251,0.251,-55,-0.000275
252,0.252,-57,-0.000285
253,0.253,-60,-0.0003
254,0.254,-61,-0.000305
255,0.255,-63,-0.000315
256,0.256,-66,-0.00033
257,0.257,-70,-0.00035
258,0.258,-74,-0.00037
259,0.259,-77,-0.000385
260,0.26,-81,-0.000405
261,0.261,-84,-0.00042
262,0.262,-89,-0.000445
263,0.263,-94,-0.00047
264,0.264,-99,-0.000495
265,0.265,-103,-0.000515
266,0.266,-107,-0.000535
267,0.267,-111,-0.000555
268,0.268,-116,-0.00058
269,0.269,-121,-0.000605
270,0.27,-126,-0.00063
271,0.271,-131,-0.000655
272,0.272,-135,-0.000675
273,0.273,-140,-0.0007
274,0.274,-145,-0.000725
275,0.275,-150,-0.00075
276,0.276,-153,-0.000765
277,0.277,-157,-0.000785
278,0.278,-160,-0.0008
279,0.279,-165,-0.000825
280,0.28,-169,-0.000845
281,0.281,-173,-0.000865
282,0.282,-177,-0.000885
283,0.283,-182,-0.00091
284,0.284,-187,-0.000935
285,0.285,-192,-0.00096
286,0.286,-198,-0.00099
287,0.287,-202,-0.00101
288,0.288,-206,-0.00103
289,0.289,-211,-0.001055
290,0.29,-214,-0.00107
291,0.291,-217,-0.001085
292,0.292,-220,-0.0011
293,0.293,-221,-0.001105
294,0.294,-222,-0.00111
295,0.295,-222,-0.00111
296,0.296,-221,-0.001105
297,0.297,-220,-0.0011
298,0.298,-220,-0.0011
299,0.299,-219,-0.001095
300,0.3,-218,-0.00109
301,0.301,-219,-0.001095
302,0.302,-220,-0.0011
303,0.303,-220,-0.0011
304,0.304,-221,-0.001105
305,0.305,-222,-0.00111
306,0.306,-222,-0.00111
307,0.307,-221,-0.001105
308,0.308,-221,-0.001105
309,0.309,-221,-0.001105
310,0.31,-221,-0.001105
311,0.311,-221,-0.001105
312,0.312,-221,-0.001105
313,0.313,-221,-0.001105
314,0.314,-221,-0.001105
315,0.315,-220,-0.0011
316,0.316,-220,-0.0011
317,0.317,-220,-0.0011
318,0.318,-221,-0.001105
319,0.319,-222,-0.00111
320,0.32,-222,-0.00111
321,0.321,-222,-0.00111
322,0.322,-221,-0.001105
323,0.323,-220,-0.0011
324,0.324,-219,-0.001095
325,0.325,-218,-0.00109
326,0.326,-215,-0.001075
327,0.327,-212,-0.00106
328,0.328,-209,-0.001045
329,0.329,-206,-0.00103
330,0.33,-203,-0.001015
331,0.331,-201,-0.001005
332,0.332,-200,-0.001
333,0.333,-200,-0.001
334,0.334,-198,-0.00099
335,0.335,-195,-0.000975
336,0.336,-193,-0.000965
337,0.337,-192,-0.00096
338,0.338,-191,-0.000955
339,0.339,-190,-0.00095
340,0.34,-184,-0.00092
341,0.341,-179,-0.000895
342,0.342,-174,-0.00087
343,0.343,-168,-0.00084
344,0.344,-163,-0.000815
345,0.345,-158,-0.00079
346,0.346,-152,-0.00076
347,0.347,-147,-0.000735
348,0.348,-144,-0.00072
349,0.349,-140,-0.0007
350,0.35,-136,-0.00068
351,0.351,-136,-0.00068
352,0.352,-136,-0.00068
353,0.353,-136,-0.00068
354,0.354,-136,-0.00068
355,0.355,-136,-0.00068
356,0.356,-136,-0.00068
357,0.357,-136,-0.00068
358,0.358,-136,-0.00068
359,0.359,-134,-0.00067
360,0.36,-131,-0.000655
361,0.361,-129,-0.000645
362,0.362,-125,-0.000625
363,0.363,-121,-0.000605
364,0.364,-117,-0.000585
365,0.365,-114,-0.00057
366,0.366,-110,-0.00055
367,0.367,-108,-0.00054
368,0.368,-107,-0.000535
369,0.369,-106,-0.00053
370,0.37,-105,-0.000525
371,0.371,-104,-0.00052
372,0.372,-103,-0.000515
373,0.373,-102,-0.00051
374,0.374,-101,-0.000505
375,0.375,-100,-0.0005
376,0.376,-98,-0.00049
377,0.377,-96,-0.00048
378,0.378,-94,-0.00047
379,0.379,-92,-0.00046
380,0.38,-89,-0.000445
381,0.381,-87,-0.000435
382,0.382,-84,-0.00042
383,0.383,-80,-0.0004
384,0.384,-78,-0.00039
385,0.385,-76,-0.00038
386,0.386,-74,-0.00037
387,0.387,-73,-0.000365
388,0.388,-73,-0.000365
389,0.389,-72,-0.00036
390,0.39,-73,-0.000365
391,0.391,-75,-0.000375
392,0.392,-76,-0.00038
393,0.393,-77,-0.000385
394,0.394,-79,-0.000395
395,0.395,-79,-0.000395
396,0.396,-79,-0.000395
397,0.397,-79,-0.000395
398,0.398,-79,-0.000395
399,0.399,-79,-0.000395
400,0.4,-78,-0.00039
401,0.401,-77,-0.000385
402,0.402,-75,-0.000375
403,0.403,-74,-0.00037
404,0.404,-74,-0.00037
405,0.405,-73,-0.000365
406,0.406,-74,-0.00037
407,0.407,-74,-0.00037
408,0.408,-75,-0.000375
409,0.409,-76,-0.00038
410,0.41,-76,-0.00038
411,0.411,-76,-0.00038
412,0.412,-76,-0.00038
413,0.413,-76,-0.00038
414,0.414,-76,-0.00038
415,0.415,-77,-0.000385
416,0.416,-79,-0.000395
417,0.417,-79,-0.000395
418,0.418,-80,-0.0004
419,0.419,-80,-0.0004
420,0.42,-80,-0.0004
421,0.421,-80,-0.0004
422,0.422,-79,-0.000395
423,0.423,-80,-0.0004
424,0.424,-81,-0.000405
425,0.425,-81,-0.000405
426,0.426,-83,-0.000415
427,0.427,-84,-0.00042
428,0.428,-86,-0.00043
429,0.429,-88,-0.00044
430,0.43,-90,-0.00045
431,0.431,-93,-0.000465
432,0.432,-95,-0.000475
433,0.433,-98,-0.00049
434,0.434,-102,-0.00051
435,0.435,-105,-0.000525
436,0.436,-109,-0.000545
437,0.437,-112,-0.00056
438,0.438,-116,-0.00058
439,0.439,-120,-0.0006
440,0.44,-123,-0.000615
441,0.441,-127,-0.000635
442,0.442,-130,-0.00065
443,0.443,-132,-0.00066
444,0.444,-133,-0.000665
445,0.445,-135,-0.000675
446,0.446,-136,-0.00068
447,0.447,-137,-0.000685
448,0.448,-139,-0.000695
449,0.449,-142,-0.00071
450,0.45,-145,-0.000725
451,0.451,-146,-0.00073
452,0.452,-147,-0.000735
453,0.453,-149,-0.000745
454,0.454,-152,-0.00076
455,0.455,-155,-0.000775
456,0.456,-157,-0.000785
457,0.457,-159,-0.000795
458,0.458,-162,-0.00081
459,0.459,-162,-0.00081
460,0.46,-160,-0.0008
461,0.461,-159,-0.000795
462,0.462,-160,-0.0008
463,0.463,-160,-0.0008
464,0.464,-160,-0.0008
465,0.465,-160,-0.0008
466,0.466,-160,-0.0008
467,0.467,-160,-0.0008
468,0.468,-161,-0.000805
469,0.469,-162,-0.00081
470,0.47,-163,-0.000815
471,0.471,-166,-0.00083
472,0.472,-168,-0.00084
473,0.473,-169,-0.000845
474,0.474,-170,-0.00085
475,0.475,-171,-0.000855
476,0.476,-173,-0.000865
477,0.477,-174,-0.00087
478,0.478,-175,-0.000875
479,0.479,-173,-0.000865
480,0.48,-171,-0.000855
481,0.481,-169,-0.000845
482,0.482,-166,-0.00083
483,0.483,-162,-0.00081
484,0.484,-158,-0.00079
485,0.485,-154,-0.00077
486,0.486,-149,-0.000745
487,0.487,-140,-0.0007
488,0.488,-131,-0.000655
489,0.489,-121,-0.000605
490,0.49,-108,-0.00054
491,0.491,-96,-0.00048
492,0.492,-82,-0.00041
493,0.493,-65,-0.000325
494,0.494,-48,-0.00024
495,0.495,-32,-0.00016
496,0.496,-16,-8e-05
497,0.497,0,0.0
498,0.498,16,8e-05
499,0.499,31,0.000155
500,0.5,47,0.000235
501,0.501,58,0.00029
502,0.502,70,0.00035
503,0.503,80,0.0004
504,0.504,88,0.00044
505,0.505,95,0.000475
506,0.506,101,0.000505
507,0.507,104,0.00052
508,0.508,107,0.000535
509,0.509,106,0.00053
510,0.51,104,0.00052
511,0.511,101,0.000505
512,0.512,96,0.00048
513,0.513,90,0.00045
514,0.514,83,0.000415
515,0.515,70,0.00035
516,0.516,57,0.000285
517,0.517,41,0.000205
518,0.518,19,9.5e-05
519,0.519,-3,-1.5e-05
520,0.52,-23,-0.000115
521,0.521,-42,-0.00021
522,0.522,-60,-0.0003
523,0.523,-71,-0.000355
524,0.524,-79,-0.000395
525,0.525,-87,-0.000435
526,0.526,-88,-0.00044
527,0.527,-89,-0.000445
528,0.528,-89,-0.000445
529,0.529,-91,-0.000455
530,0.53,-92,-0.00046
531,0.531,-95,-0.000475
532,0.532,-100,-0.0005
533,0.533,-105,-0.000525
534,0.534,-113,-0.000565
535,0.535,-123,-0.000615
536,0.536,-132,-0.00066
537,0.537,-139,-0.000695
538,0.538,-146,-0.00073
539,0.539,-152,-0.00076
540,0.54,-154,-0.00077
541,0.541,-155,-0.000775
542,0.542,-156,-0.00078
543,0.543,-153,-0.000765
544,0.544,-151,-0.000755
545,0.545,-149,-0.000745
546,0.546,-148,-0.00074
547,0.547,-147,-0.000735
548,0.548,-147,-0.000735
549,0.549,-148,-0.00074
550,0.55,-148,-0.00074
551,0.551,-149,-0.000745
552,0.552,-149,-0.000745
553,0.553,-149,-0.000745
554,0.554,-150,-0.00075
555,0.555,-150,-0.00075
556,0.556,-150,-0.00075
557,0.557,-149,-0.000745
558,0.558,-148,-0.00074
559,0.559,-147,-0.000735
560,0.56,-145,-0.000725
561,0.561,-144,-0.00072
562,0.562,-145,-0.000725
563,0.563,-146,-0.00073
564,0.564,-146,-0.00073
565,0.565,-148,-0.00074
566,0.566,-150,-0.00075
567,0.567,-151,-0.000755
568,0.568,-152,-0.00076
569,0.569,-153,-0.000765
570,0.57,-153,-0.000765
571,0.571,-153,-0.000765
572,0.572,-152,-0.00076
573,0.573,-150,-0.00075
574,0.574,-147,-0.000735
575,0.575,-144,-0.00072
576,0.576,-140,-0.0007
577,0.577,-135,-0.000675
578,0.578,-131,-0.000655
579,0.579,-127,-0.000635
580,0.58,-124,-0.00062
581,0.581,-121,-0.000605
582,0.582,-119,-0.000595
583,0.583,-116,-0.00058
584,0.584,-115,-0.000575
585,0.585,-114,-0.00057
586,0.586,-113,-0.000565
587,0.587,-114,-0.00057
588,0.588,-115,-0.000575
589,0.589,-116,-0.00058
590,0.59,-116,-0.00058
591,0.591,-116,-0.00058
592,0.592,-116,-0.00058
593,0.593,-115,-0.000575
594,0.594,-114,-0.00057
595,0.595,-112,-0.00056
596,0.596,-109,-0.000545
597,0.597,-106,-0.00053
598,0.598,-103,-0.000515
599,0.599,-101,-0.000505
600,0.6,-98,-0.00049
601,0.601,-97,-0.000485
602,0.602,-95,-0.000475
603,0.603,-94,-0.00047
604,0.604,-94,-0.00047
605,0.605,-93,-0.000465
606,0.606,-93,-0.000465
607,0.607,-93,-0.000465
608,0.608,-92,-0.00046
609,0.609,-91,-0.000455
610,0.61,-89,-0.000445
611,0.611,-87,-0.000435
612,0.612,-85,-0.000425
613,0.613,-84,-0.00042
614,0.614,-83,-0.000415
615,0.615,-81,-0.000405
616,0.616,-80,-0.0004
617,0.617,-78,-0.00039
618,0.618,-78,-0.00039
619,0.619,-78,-0.00039
620,0.62,-78,-0.00039
621,0.621,-78,-0.00039
622,0.622,-78,-0.00039
623,0.623,-78,-0.00039
624,0.624,-78,-0.00039
625,0.625,-77,-0.000385
626,0.626,-76,-0.00038
627,0.627,-74,-0.00037
628,0.628,-73,-0.000365
629,0.629,-69,-0.000345
630,0.63,-66,-0.00033
631,0.631,-64,-0.00032
632,0.632,-62,-0.00031
633,0.633,-60,-0.0003
634,0.634,-59,-0.000295
635,0.635,-58,-0.00029
636,0.636,-57,-0.000285
637,0.637,-57,-0.000285
638,0.638,-56,-0.00028
639,0.639,-55,-0.000275
640,0.64,-53,-0.000265
641,0.641,-52,-0.00026
642,0.642,-49,-0.000245
643,0.643,-47,-0.000235
644,0.644,-44,-0.00022
645,0.645,-42,-0.00021
646,0.646,-39,-0.000195
647,0.647,-36,-0.00018
648,0.648,-34,-0.00017
649,0.649,-33,-0.000165
650,0.65,-31,-0.000155
651,0.651,-30,-0.00015
652,0.652,-29,-0.000145
653,0.653,-28,-0.00014
654,0.654,-28,-0.00014
655,0.655,-28,-0.00014
656,0.656,-28,-0.00014
657,0.657,-27,-0.000135
658,0.658,-27,-0.000135
659,0.659,-25,-0.000125
660,0.66,-24,-0.00012
661,0.661,-22,-0.00011
662,0.662,-21,-0.000105
663,0.663,-19,-9.5e-05
664,0.664,-17,-8.5e-05
665,0.665,-16,-8e-05
666,0.666,-16,-8e-05
667,0.667,-15,-7.5e-05
668,0.668,-15,-7.5e-05
669,0.669,-15,-7.5e-05
670,0.67,-15,-7.5e-05
671,0.671,-16,-8e-05
672,0.672,-16,-8e-05
673,0.673,-17,-8.5e-05
674,0.674,-17,-8.5e-05
675,0.675,-17,-8.5e-05
676,0.676,-17,-8.5e-05
677,0.677,-17,-8.5e-05
678,0.678,-17,-8.5e-05
679,0.679,-16,-8e-05
680,0.68,-14,-7e-05
681,0.681,-13,-6.5e-05
682,0.682,-13,-6.5e-05
683,0.683,-13,-6.5e-05
684,0.684,-13,-6.5e-05
685,0.685,-13,-6.5e-05
686,0.686,-13,-6.5e-05
687,0.687,-15,-7.5e-05
688,0.688,-16,-8e-05
689,0.689,-17,-8.5e-05
690,0.69,-19,-9.5e-05
691,0.691,-21,-0.000105
692,0.692,-23,-0.000115
693,0.693,-24,-0.00012
694,0.694,-26,-0.00013
695,0.695,-27,-0.000135
696,0.696,-28,-0.00014
697,0.697,-30,-0.00015
698,0.698,-31,-0.000155
699,0.699,-32,-0.00016
700,0.7,-33,-0.000165
701,0.701,-34,-0.00017
702,0.702,-34,-0.00017
703,0.703,-34,-0.00017
704,0.704,-35,-0.000175
705,0.705,-35,-0.000175
706,0.706,-36,-0.00018
707,0.707,-38,-0.00019
708,0.708,-41,-0.000205
709,0.709,-42,-0.00021
710,0.71,-42,-0.00021
711,0.711,-43,-0.000215
712,0.712,-44,-0.00022
713,0.713,-45,-0.000225
714,0.714,-45,-0.000225
715,0.715,-45,-0.000225
716,0.716,-45,-0.000225
717,0.717,-44,-0.00022
718,0.718,-45,-0.000225
719,0.719,-46,-0.00023
720,0.72,-46,-0.00023
721,0.721,-46,-0.00023
722,0.722,-45,-0.000225
723,0.723,-45,-0.000225
724,0.724,-45,-0.000225
725,0.725,-44,-0.00022
726,0.726,-44,-0.00022
727,0.727,-43,-0.000215
728,0.728,-42,-0.00021
729,0.729,-41,-0.000205
730,0.73,-40,-0.0002
731,0.731,-39,-0.000195
732,0.732,-39,-0.000195
733,0.733,-39,-0.000195
734,0.734,-39,-0.000195
735,0.735,-38,-0.00019
736,0.736,-37,-0.000185
737,0.737,-38,-0.00019
738,0.738,-39,-0.000195
739,0.739,-39,-0.000195
740,0.74,-39,-0.000195
741,0.741,-39,-0.000195
742,0.742,-39,-0.000195
743,0.743,-37,-0.000185
744,0.744,-36,-0.00018
745,0.745,-34,-0.00017
746,0.746,-33,-0.000165
747,0.747,-31,-0.000155
748,0.748,-29,-0.000145
749,0.749,-28,-0.00014
750,0.75,-27,-0.000135
751,0.751,-27,-0.000135
752,0.752,-27,-0.000135
753,0.753,-27,-0.000135
754,0.754,-27,-0.000135
755,0.755,-27,-0.000135
756,0.756,-28,-0.00014
757,0.757,-28,-0.00014
758,0.758,-29,-0.000145
759,0.759,-28,-0.00014
760,0.76,-27,-0.000135
761,0.761,-25,-0.000125
762,0.762,-24,-0.00012
763,0.763,-23,-0.000115
764,0.764,-21,-0.000105
765,0.765,-19,-9.5e-05
766,0.766,-16,-8e-05
767,0.767,-14,-7e-05
768,0.768,-12,-6e-05
769,0.769,-10,-5e-05
770,0.77,-9,-4.5e-05
771,0.771,-10,-5e-05
772,0.772,-10,-5e-05
773,0.773,-10,-5e-05
774,0.774,-10,-5e-05
775,0.775,-9,-4.5e-05
776,0.776,-9,-4.5e-05
777,0.777,-8,-4e-05
778,0.778,-7,-3.5e-05
779,0.779,-7,-3.5e-05
780,0.78,-6,-3e-05
781,0.781,-6,-3e-05
782,0.782,-5,-2.5e-05
783,0.783,-4,-2e-05
784,0.784,-4,-2e-05
785,0.785,-5,-2.5e-05
786,0.786,-6,-3e-05
787,0.787,-6,-3e-05
788,0.788,-6,-3e-05
789,0.789,-6,-3e-05
790,0.79,-6,-3e-05
791,0.791,-6,-3e-05
792,0.792,-5,-2.5e-05
793,0.793,-3,-1.5e-05
794,0.794,0,0.0
795,0.795,1,5e-06
796,0.796,2,1e-05
797,0.797,3,1.5e-05
798,0.798,5,2.5e-05
799,0.799,6,3e-05
800,0.8,8,4e-05
801,0.801,6,3e-05
802,0.802,5,2.5e-05
803,0.803,4,2e-05
804,0.804,5,2.5e-05
805,0.805,5,2.5e-05
806,0.806,6,3e-05
807,0.807,7,3.5e-05
808,0.808,8,4e-05
809,0.809,10,5e-05
810,0.81,12,6e-05
811,0.811,14,7e-05
812,0.812,16,8e-05
813,0.813,17,8.5e-05
814,0.814,18,9e-05
815,0.815,17,8.5e-05
816,0.816,17,8.5e-05
817,0.817,16,8e-05
818,0.818,14,7e-05
819,0.819,12,6e-05
820,0.82,9,4.5e-05
821,0.821,7,3.5e-05
822,0.822,4,2e-05
823,0.823,3,1.5e-05
824,0.824,3,1.5e-05
825,0.825,3,1.5e-05
826,0.826,3,1.5e-05
827,0.827,4,2e-05
828,0.828,5,2.5e-05
829,0.829,4,2e-05
830,0.83,4,2e-05
831,0.831,3,1.5e-05
832,0.832,0,0.0
833,0.833,-2,-1e-05
834,0.834,-3,-1.5e-05
835,0.835,-2,-1e-05
836,0.836,-1,-5e-06
837,0.837,-2,-1e-05
838,0.838,-3,-1.5e-05
839,0.839,-3,-1.5e-05
840,0.84,-4,-2e-05
841,0.841,-5,-2.5e-05
842,0.842,-5,-2.5e-05
843,0.843,-4,-2e-05
844,0.844,-4,-2e-05
845,0.845,-3,-1.5e-05
846,0.846,-2,-1e-05
847,0.847,-1,-5e-06
848,0.848,0,0.0
849,0.849,0,0.0
850,0.85,0,0.0
851,0.851,-1,-5e-06
852,0.852,-1,-5e-06
853,0.853,-2,-1e-05
854,0.854,-3,-1.5e-05
855,0.855,-4,-2e-05
856,0.856,-6,-3e-05
857,0.857,-6,-3e-05
858,0.858,-7,-3.5e-05
859,0.859,-7,-3.5e-05
860,0.86,-7,-3.5e-05
861,0.861,-6,-3e-05
862,0.862,-6,-3e-05
863,0.863,-5,-2.5e-05
864,0.864,-4,-2e-05
865,0.865,-5,-2.5e-05
866,0.866,-6,-3e-05
867,0.867,-6,-3e-05
868,0.868,-7,-3.5e-05
869,0.869,-8,-4e-05
870,0.87,-9,-4.5e-05
871,0.871,-11,-5.5e-05
872,0.872,-13,-6.5e-05
873,0.873,-13,-6.5e-05
874,0.874,-13,-6.5e-05
875,0.875,-13,-6.5e-05
876,0.876,-14,-7e-05
877,0.877,-14,-7e-05
878,0.878,-14,-7e-05
879,0.879,-15,-7.5e-05
880,0.88,-15,-7.5e-05
881,0.881,-16,-8e-05
882,0.882,-16,-8e-05
883,0.883,-17,-8.5e-05
884,0.884,-16,-8e-05
885,0.885,-15,-7.5e-05
886,0.886,-13,-6.5e-05
887,0.887,-14,-7e-05
888,0.888,-14,-7e-05
889,0.889,-14,-7e-05
890,0.89,-14,-7e-05
891,0.891,-14,-7e-05
892,0.892,-13,-6.5e-05
893,0.893,-11,-5.5e-05
894,0.894,-10,-5e-05
895,0.895,-8,-4e-05
896,0.896,-7,-3.5e-05
897,0.897,-5,-2.5e-05
898,0.898,-5,-2.5e-05
899,0.899,-6,-3e-05
900,0.9,-6,-3e-05
901,0.901,-7,-3.5e-05
902,0.902,-7,-3.5e-05
903,0.903,-7,-3.5e-05
904,0.904,-7,-3.5e-05
905,0.905,-7,-3.5e-05
906,0.906,-8,-4e-05
907,0.907,-8,-4e-05
908,0.908,-9,-4.5e-05
909,0.909,-9,-4.5e-05
910,0.91,-9,-4.5e-05
911,0.911,-8,-4e-05
912,0.912,-8,-4e-05
913,0.913,-7,-3.5e-05
914,0.914,-6,-3e-05
915,0.915,-6,-3e-05
916,0.916,-6,-3e-05
917,0.917,-7,-3.5e-05
918,0.918,-9,-4.5e-05
919,0.919,-11,-5.5e-05
920,0.92,-13,-6.5e-05
921,0.921,-13,-6.5e-05
922,0.922,-14,-7e-05
923,0.923,-15,-7.5e-05
924,0.924,-16,-8e-05
925,0.925,-16,-8e-05
926,0.926,-16,-8e-05
927,0.927,-16,-8e-05
928,0.928,-16,-8e-05
929,0.929,-16,-8e-05
930,0.93,-15,-7.5e-05
931,0.931,-15,-7.5e-05
932,0.932,-15,-7.5e-05
933,0.933,-15,-7.5e-05
934,0.934,-15,-7.5e-05
935,0.935,-16,-8e-05
936,0.936,-16,-8e-05
937,0.937,-17,-8.5e-05
938,0.938,-18,-9e-05
939,0.939,-19,-9.5e-05
940,0.94,-22,-0.00011
941,0.941,-24,-0.00012
942,0.942,-26,-0.00013
943,0.943,-27,-0.000135
944,0.944,-28,-0.00014
945,0.945,-28,-0.00014
946,0.946,-29,-0.000145
947,0.947,-29,-0.000145
948,0.948,-30,-0.00015
949,0.949,-31,-0.000155
950,0.95,-31,-0.000155
951,0.951,-29,-0.000145
952,0.952,-27,-0.000135
953,0.953,-25,-0.000125
954,0.954,-26,-0.00013
955,0.955,-26,-0.00013
956,0.956,-26,-0.00013
957,0.957,-27,-0.000135
958,0.958,-27,-0.000135
959,0.959,-28,-0.00014
960,0.96,-28,-0.00014
961,0.961,-29,-0.000145
962,0.962,-30,-0.00015
963,0.963,-31,-0.000155
964,0.964,-31,-0.000155
965,0.965,-33,-0.000165
966,0.966,-34,-0.00017
967,0.967,-36,-0.00018
968,0.968,-38,-0.00019
969,0.969,-39,-0.000195
970,0.97,-41,-0.000205
971,0.971,-44,-0.00022
972,0.972,-46,-0.00023
973,0.973,-48,-0.00024
974,0.974,-49,-0.000245
975,0.975,-51,-0.000255
976,0.976,-51,-0.000255
977,0.977,-51,-0.000255
978,0.978,-51,-0.000255
979,0.979,-52,-0.00026
980,0.98,-53,-0.000265
981,0.981,-54,-0.00027
982,0.982,-55,-0.000275
983,0.983,-56,-0.00028
984,0.984,-57,-0.000285
985,0.985,-58,-0.00029
986,0.986,-59,-0.000295
987,0.987,-61,-0.000305
988,0.988,-62,-0.00031
989,0.989,-63,-0.000315
990,0.99,-64,-0.00032
991,0.991,-66,-0.00033
992,0.992,-66,-0.00033
993,0.993,-66,-0.00033
994,0.994,-66,-0.00033
995,0.995,-66,-0.00033
996,0.996,-66,-0.00033
997,0.997,-65,-0.000325
998,0.998,-66,-0.00033
999,0.999,-67,-0.000335
1000,1.0,-67,-0.000335
1001,1.001,-68,-0.00034
1002,1.002,-69,-0.000345
1003,1.003,-69,-0.000345
1004,1.004,-71,-0.000355
1005,1.005,-72,-0.00036
1006,1.006,-73,-0.000365
1007,1.007,-74,-0.00037
1008,1.008,-76,-0.00038
1009,1.009,-76,-0.00038
1010,1.01,-77,-0.000385
1011,1.011,-77,-0.000385
1012,1.012,-76,-0.00038
1013,1.013,-75,-0.000375
1014,1.014,-73,-0.000365
1015,1.015,-73,-0.000365
1016,1.016,-73,-0.000365
1017,1.017,-72,-0.00036
1018,1.018,-73,-0.000365
1019,1.019,-73,-0.000365
1020,1.02,-73,-0.000365
1021,1.021,-73,-0.000365
1022,1.022,-73,-0.000365
1023,1.023,-74,-0.00037
1024,1.024,-75,-0.000375
1025,1.025,-76,-0.00038
1026,1.026,-77,-0.000385
1027,1.027,-78,-0.00039
1028,1.028,-78,-0.00039
1029,1.029,-79,-0.000395
1030,1.03,-79,-0.000395
1031,1.031,-79,-0.000395
1032,1.032,-78,-0.00039
1033,1.033,-78,-0.00039
1034,1.034,-76,-0.00038
1035,1.035,-75,-0.000375
1036,1.036,-73,-0.000365
1037,1.037,-72,-0.00036
1038,1.038,-71,-0.000355
1039,1.039,-70,-0.00035
1040,1.04,-69,-0.000345
1041,1.041,-67,-0.000335
1042,1.042,-66,-0.00033
1043,1.043,-65,-0.000325
1044,1.044,-65,-0.000325
1045,1.045,-63,-0.000315
1046,1.046,-61,-0.000305
1047,1.047,-59,-0.000295
1048,1.048,-59,-0.000295
1049,1.049,-59,-0.000295
1050,1.05,-59,-0.000295
1051,1.051,-59,-0.000295
1052,1.052,-59,-0.000295
1053,1.053,-58,-0.00029
1054,1.054,-58,-0.00029
1055,1.055,-58,-0.00029
1056,1.056,-59,-0.000295
1057,1.057,-59,-0.000295
1058,1.058,-60,-0.0003
1059,1.059,-59,-0.000295
1060,1.06,-56,-0.00028
1061,1.061,-54,-0.00027
1062,1.062,-52,-0.00026
1063,1.063,-50,-0.00025
1064,1.064,-48,-0.00024
1065,1.065,-48,-0.00024
1066,1.066,-48,-0.00024
1067,1.067,-49,-0.000245
1068,1.068,-50,-0.00025
1069,1.069,-51,-0.000255
1070,1.07,-52,-0.00026
1071,1.071,-54,-0.00027
1072,1.072,-56,-0.00028
1073,1.073,-58,-0.00029
1074,1.074,-59,-0.000295
1075,1.075,-61,-0.000305
1076,1.076,-62,-0.00031
1077,1.077,-62,-0.00031
1078,1.078,-62,-0.00031
1079,1.079,-61,-0.000305
1080,1.08,-59,-0.000295
1081,1.081,-58,-0.00029
1082,1.082,-59,-0.000295
1083,1.083,-59,-0.000295
1084,1.084,-59,-0.000295
1085,1.085,-60,-0.0003
1086,1.086,-60,-0.0003
1087,1.087,-63,-0.000315
1088,1.088,-67,-0.000335
1089,1.089,-71,-0.000355
1090,1.09,-74,-0.00037
1091,1.091,-77,-0.000385
1092,1.092,-80,-0.0004
1093,1.093,-81,-0.000405
1094,1.094,-83,-0.000415
1095,1.095,-83,-0.000415
1096,1.096,-84,-0.00042
1097,1.097,-84,-0.00042
1098,1.098,-84,-0.00042
1099,1.099,-84,-0.00042
1100,1.1,-83,-0.000415
1101,1.101,-83,-0.000415
1102,1.102,-83,-0.000415
1103,1.103,-83,-0.000415
1104,1.104,-83,-0.000415
1105,1.105,-82,-0.00041
1106,1.106,-83,-0.000415
1107,1.107,-84,-0.00042
1108,1.108,-86,-0.00043
1109,1.109,-85,-0.000425
1110,1.11,-83,-0.000415
1111,1.111,-82,-0.00041
1112,1.112,-79,-0.000395
1113,1.113,-77,-0.000385
1114,1.114,-75,-0.000375
1115,1.115,-73,-0.000365
1116,1.116,-71,-0.000355
1117,1.117,-69,-0.000345
1118,1.118,-68,-0.00034
1119,1.119,-67,-0.000335
1120,1.12,-66,-0.00033
1121,1.121,-67,-0.000335
1122,1.122,-67,-0.000335
1123,1.123,-66,-0.00033
1124,1.124,-64,-0.00032
1125,1.125,-62,-0.00031
1126,1.126,-61,-0.000305
1127,1.127,-60,-0.0003
1128,1.128,-59,-0.000295
1129,1.129,-58,-0.00029
1130,1.13,-58,-0.00029
1131,1.131,-57,-0.000285
1132,1.132,-55,-0.000275
1133,1.133,-53,-0.000265
1134,1.134,-52,-0.00026
1135,1.135,-51,-0.000255
1136,1.136,-49,-0.000245
1137,1.137,-48,-0.00024
1138,1.138,-47,-0.000235
1139,1.139,-45,-0.000225
1140,1.14,-45,-0.000225
1141,1.141,-45,-0.000225
1142,1.142,-44,-0.00022
1143,1.143,-41,-0.000205
1144,1.144,-39,-0.000195
1145,1.145,-38,-0.00019
1146,1.146,-38,-0.00019
1147,1.147,-37,-0.000185
1148,1.148,-36,-0.00018
1149,1.149,-35,-0.000175
1150,1.15,-33,-0.000165
1151,1.151,-32,-0.00016
1152,1.152,-30,-0.00015
1153,1.153,-28,-0.00014
1154,1.154,-27,-0.000135
1155,1.155,-27,-0.000135
1156,1.156,-26,-0.00013
1157,1.157,-24,-0.00012
1158,1.158,-23,-0.000115
1159,1.159,-21,-0.000105
1160,1.16,-19,-9.5e-05
1161,1.161,-17,-8.5e-05
1162,1.162,-15,-7.5e-05
1163,1.163,-14,-7e-05
1164,1.164,-12,-6e-05
1165,1.165,-11,-5.5e-05
1166,1.166,-10,-5e-05
1167,1.167,-9,-4.5e-05
1168,1.168,-8,-4e-05
1169,1.169,-8,-4e-05
1170,1.17,-7,-3.5e-05
1171,1.171,-7,-3.5e-05
1172,1.172,-6,-3e-05
1173,1.173,-5,-2.5e-05
1174,1.174,-3,-1.5e-05
1175,1.175,-1,-5e-06
1176,1.176,2,1e-05
1177,1.177,6,3e-05
1178,1.178,10,5e-05
1179,1.179,14,7e-05
1180,1.18,19,9.5e-05
1181,1.181,24,0.00012
1182,1.182,30,0.00015
1183,1.183,36,0.00018
1184,1.184,44,0.00022
1185,1.185,53,0.000265
1186,1.186,62,0.00031
1187,1.187,74,0.00037
1188,1.188,85,0.000425
1189,1.189,97,0.000485
1190,1.19,112,0.00056
1191,1.191,126,0.00063
1192,1.192,141,0.000705
1193,1.193,157,0.000785
1194,1.194,172,0.00086
1195,1.195,187,0.000935
1196,1.196,201,0.001005
1197,1.197,215,0.001075
1198,1.198,228,0.00114
1199,1.199,240,0.0012
1200,1.2,252,0.00126
1201,1.201,260,0.0013
1202,1.202,268,0.00134
1203,1.203,275,0.001375
1204,1.204,279,0.001395
1205,1.205,283,0.001415
1206,1.206,285,0.001425
1207,1.207,284,0.00142
1208,1.208,282,0.00141
1209,1.209,279,0.001395
1210,1.21,275,0.001375
1211,1.211,270,0.00135
1212,1.212,259,0.001295
1213,1.213,247,0.001235
1214,1.214,234,0.00117
1215,1.215,214,0.00107
1216,1.216,194,0.00097
1217,1.217,174,0.00087
1218,1.218,157,0.000785
1219,1.219,139,0.000695
1220,1.22,127,0.000635
1221,1.221,120,0.0006
1222,1.222,113,0.000565
1223,1.223,111,0.000555
1224,1.224,109,0.000545
1225,1.225,108,0.00054
1226,1.226,107,0.000535
1227,1.227,106,0.00053
1228,1.228,105,0.000525
1229,1.229,100,0.0005
1230,1.23,95,0.000475
1231,1.231,88,0.00044
1232,1.232,79,0.000395
1233,1.233,69,0.000345
1234,1.234,60,0.0003
1235,1.235,51,0.000255
1236,1.236,42,0.00021
1237,1.237,37,0.000185
1238,1.238,32,0.00016
1239,1.239,28,0.00014
1240,1.24,26,0.00013
1241,1.241,24,0.00012
1242,1.242,22,0.00011
1243,1.243,21,0.000105
1244,1.244,19,9.5e-05
1245,1.245,17,8.5e-05
1246,1.246,15,7.5e-05
1247,1.247,12,6e-05
1248,1.248,10,5e-05
1249,1.249,7,3.5e-05
1250,1.25,4,2e-05
1251,1.251,2,1e-05
1252,1.252,0,0.0
1253,1.253,-1,-5e-06
1254,1.254,-2,-1e-05
1255,1.255,-3,-1.5e-05
1256,1.256,-4,-2e-05
1257,1.257,-5,-2.5e-05
1258,1.258,-6,-3e-05
1259,1.259,-6,-3e-05
1260,1.26,-6,-3e-05
1261,1.261,-5,-2.5e-05
1262,1.262,-6,-3e-05
1263,1.263,-6,-3e-05
1264,1.264,-6,-3e-05
1265,1.265,-7,-3.5e-05
1266,1.266,-7,-3.5e-05
1267,1.267,-7,-3.5e-05
1268,1.268,-6,-3e-05
1269,1.269,-5,-2.5e-05
1270,1.27,-4,-2e-05
1271,1.271,-4,-2e-05
1272,1.272,-3,-1.5e-05
1273,1.273,-3,-1.5e-05
1274,1.274,-3,-1.5e-05
1275,1.275,-2,-1e-05
1276,1.276,-1,-5e-06
1277,1.277,1,5e-06
1278,1.278,2,1e-05
1279,1.279,4,2e-05
1280,1.28,6,3e-05
1281,1.281,8,4e-05
1282,1.282,8,4e-05
1283,1.283,9,4.5e-05
1284,1.284,9,4.5e-05
1285,1.285,8,4e-05
1286,1.286,8,4e-05
1287,1.287,8,4e-05
1288,1.288,8,4e-05
1289,1.289,9,4.5e-05
1290,1.29,9,4.5e-05
1291,1.291,9,4.5e-05
1292,1.292,9,4.5e-05
1293,1.293,11,5.5e-05
1294,1.294,12,6e-05
1295,1.295,13,6.5e-05
1296,1.296,14,7e-05
1297,1.297,15,7.5e-05
1298,1.298,16,8e-05
1299,1.299,18,9e-05
1300,1.3,20,0.0001
1301,1.301,21,0.000105
1302,1.302,22,0.00011
1303,1.303,23,0.000115
1304,1.304,23,0.000115
1305,1.305,23,0.000115
1306,1.306,23,0.000115
1307,1.307,24,0.00012
1308,1.308,24,0.00012
1309,1.309,26,0.00013
1310,1.31,29,0.000145
1311,1.311,31,0.000155
1312,1.312,31,0.000155
1313,1.313,31,0.000155
1314,1.314,31,0.000155
1315,1.315,31,0.000155
1316,1.316,31,0.000155
1317,1.317,32,0.00016
1318,1.318,32,0.00016
1319,1.319,32,0.00016
1320,1.32,32,0.00016
1321,1.321,32,0.00016
1322,1.322,33,0.000165
1323,1.323,33,0.000165
1324,1.324,34,0.00017
1325,1.325,35,0.000175
1326,1.326,36,0.00018
1327,1.327,38,0.00019
1328,1.328,39,0.000195
1329,1.329,41,0.000205
1330,1.33,43,0.000215
1331,1.331,45,0.000225
1332,1.332,47,0.000235
1333,1.333,49,0.000245
1334,1.334,50,0.00025
1335,1.335,51,0.000255
1336,1.336,52,0.00026
1337,1.337,52,0.00026
1338,1.338,52,0.00026
1339,1.339,53,0.000265
1340,1.34,53,0.000265
1341,1.341,53,0.000265
1342,1.342,54,0.00027
1343,1.343,57,0.000285
1344,1.344,60,0.0003
1345,1.345,61,0.000305
1346,1.346,62,0.00031
1347,1.347,63,0.000315
1348,1.348,64,0.00032
1349,1.349,64,0.00032
1350,1.35,65,0.000325
1351,1.351,65,0.000325
1352,1.352,65,0.000325
1353,1.353,65,0.000325
1354,1.354,65,0.000325
1355,1.355,65,0.000325
1356,1.356,65,0.000325
1357,1.357,65,0.000325
1358,1.358,66,0.00033
1359,1.359,67,0.000335
1360,1.36,70,0.00035
1361,1.361,72,0.00036
1362,1.362,74,0.00037
1363,1.363,76,0.00038
1364,1.364,78,0.00039
1365,1.365,79,0.000395
1366,1.366,81,0.000405
1367,1.367,82,0.00041
1368,1.368,81,0.000405
1369,1.369,80,0.0004
1370,1.37,80,0.0004
1371,1.371,79,0.000395
1372,1.372,79,0.000395
1373,1.373,79,0.000395
1374,1.374,79,0.000395
1375,1.375,79,0.000395
1376,1.376,80,0.0004
1377,1.377,82,0.00041
1378,1.378,83,0.000415
1379,1.379,87,0.000435
1380,1.38,90,0.00045
1381,1.381,92,0.00046
1382,1.382,94,0.00047
1383,1.383,95,0.000475
1384,1.384,97,0.000485
1385,1.385,98,0.00049
1386,1.386,100,0.0005
1387,1.387,100,0.0005
1388,1.388,100,0.0005
1389,1.389,100,0.0005
1390,1.39,101,0.000505
1391,1.391,101,0.000505
1392,1.392,102,0.00051
1393,1.393,103,0.000515
1394,1.394,104,0.00052
1395,1.395,105,0.000525
1396,1.396,107,0.000535
1397,1.397,108,0.00054
1398,1.398,110,0.00055
1399,1.399,111,0.000555
1400,1.4,113,0.000565
1401,1.401,113,0.000565
1402,1.402,113,0.000565
1403,1.403,113,0.000565
1404,1.404,114,0.00057
1405,1.405,116,0.00058
1406,1.406,117,0.000585
1407,1.407,116,0.00058
1408,1.408,116,0.00058
1409,1.409,116,0.00058
1410,1.41,117,0.000585
1411,1.411,118,0.00059
1412,1.412,119,0.000595
1413,1.413,120,0.0006
1414,1.414,121,0.000605
1415,1.415,121,0.000605
1416,1.416,121,0.000605
1417,1.417,122,0.00061
1418,1.418,124,0.00062
1419,1.419,126,0.00063
1420,1.42,126,0.00063
1421,1.421,126,0.00063
1422,1.422,125,0.000625
1423,1.423,126,0.00063
1424,1.424,127,0.000635
1425,1.425,128,0.00064
1426,1.426,127,0.000635
1427,1.427,127,0.000635
1428,1.428,127,0.000635
1429,1.429,128,0.00064
1430,1.43,129,0.000645
1431,1.431,130,0.00065
1432,1.432,132,0.00066
1433,1.433,133,0.000665
1434,1.434,135,0.000675
1435,1.435,136,0.00068
1436,1.436,138,0.00069
1437,1.437,138,0.00069
1438,1.438,138,0.00069
1439,1.439,139,0.000695
1440,1.44,138,0.00069
1441,1.441,138,0.00069
1442,1.442,138,0.00069
1443,1.443,140,0.0007
1444,1.444,142,0.00071
1445,1.445,143,0.000715
1446,1.446,144,0.00072
1447,1.447,145,0.000725
1448,1.448,146,0.00073
1449,1.449,146,0.00073
1450,1.45,147,0.000735
1451,1.451,148,0.00074
1452,1.452,149,0.000745
1453,1.453,150,0.00075
1454,1.454,150,0.00075
1455,1.455,150,0.00075
1456,1.456,150,0.00075
1457,1.457,150,0.00075
1458,1.458,151,0.000755
1459,1.459,151,0.000755
1460,1.46,151,0.000755
1461,1.461,152,0.00076
1462,1.462,152,0.00076
1463,1.463,153,0.000765
1464,1.464,154,0.00077
1465,1.465,153,0.000765
1466,1.466,151,0.000755
1467,1.467,151,0.000755
1468,1.468,150,0.00075
1469,1.469,149,0.000745
1470,1.47,148,0.00074
1471,1.471,145,0.000725
1472,1.472,143,0.000715
1473,1.473,142,0.00071
1474,1.474,142,0.00071
1475,1.475,142,0.00071
1476,1.476,142,0.00071
1477,1.477,142,0.00071
1478,1.478,143,0.000715
1479,1.479,144,0.00072
1480,1.48,144,0.00072
1481,1.481,145,0.000725
1482,1.482,144,0.00072
1483,1.483,144,0.00072
1484,1.484,143,0.000715
1485,1.485,141,0.000705
1486,1.486,139,0.000695
1487,1.487,138,0.00069
1488,1.488,137,0.000685
1489,1.489,137,0.000685
1490,1.49,134,0.00067
1491,1.491,132,0.00066
1492,1.492,130,0.00065
1493,1.493,130,0.00065
1494,1.494,130,0.00065
1495,1.495,130,0.00065
1496,1.496,130,0.00065
1497,1.497,130,0.00065
1498,1.498,130,0.00065
1499,1.499,130,0.00065
1500,1.5,130,0.00065
1501,1.501,129,0.000645
1502,1.502,129,0.000645
1503,1.503,128,0.00064
1504,1.504,126,0.00063
1505,1.505,124,0.00062
1506,1.506,123,0.000615
1507,1.507,122,0.00061
1508,1.508,122,0.00061
1509,1.509,121,0.000605
1510,1.51,121,0.000605
1511,1.511,120,0.0006
1512,1.512,120,0.0006
1513,1.513,120,0.0006
1514,1.514,120,0.0006
1515,1.515,119,0.000595
1516,1.516,119,0.000595
1517,1.517,118,0.00059
1518,1.518,117,0.000585
1519,1.519,116,0.00058
1520,1.52,115,0.000575
1521,1.521,115,0.000575
1522,1.522,114,0.00057
1523,1.523,113,0.000565
1524,1.524,113,0.000565
1525,1.525,113,0.000565
1526,1.526,113,0.000565
1527,1.527,113,0.000565
1528,1.528,114,0.00057
1529,1.529,114,0.00057
1530,1.53,114,0.00057
1531,1.531,113,0.000565
1532,1.532,112,0.00056
1533,1.533,111,0.000555
1534,1.534,111,0.000555
1535,1.535,111,0.000555
1536,1.536,111,0.000555
1537,1.537,111,0.000555
1538,1.538,111,0.000555
1539,1.539,111,0.000555
1540,1.54,111,0.000555
1541,1.541,111,0.000555
1542,1.542,111,0.000555
1543,1.543,113,0.000565
1544,1.544,114,0.00057
1545,1.545,114,0.00057
1546,1.546,114,0.00057
1547,1.547,113,0.000565
1548,1.548,113,0.000565
1549,1.549,113,0.000565
1550,1.55,113,0.000565
1551,1.551,112,0.00056
1552,1.552,111,0.000555
1553,1.553,110,0.00055
1554,1.554,108,0.00054
1555,1.555,107,0.000535
1556,1.556,107,0.000535
1557,1.557,107,0.000535
1558,1.558,108,0.00054
1559,1.559,109,0.000545
1560,1.56,112,0.00056
1561,1.561,114,0.00057
1562,1.562,116,0.00058
1563,1.563,117,0.000585
1564,1.564,118,0.00059
1565,1.565,119,0.000595
1566,1.566,120,0.0006
1567,1.567,121,0.000605
1568,1.568,120,0.0006
1569,1.569,120,0.0006
1570,1.57,119,0.000595
1571,1.571,119,0.000595
1572,1.572,118,0.00059
1573,1.573,117,0.000585
1574,1.574,116,0.00058
1575,1.575,116,0.00058
1576,1.576,116,0.00058
1577,1.577,116,0.00058
1578,1.578,117,0.000585
1579,1.579,118,0.00059
1580,1.58,118,0.00059
1581,1.581,118,0.00059
1582,1.582,118,0.00059
1583,1.583,117,0.000585
1584,1.584,116,0.00058
1585,1.585,114,0.00057
1586,1.586,113,0.000565
1587,1.587,112,0.00056
1588,1.588,110,0.00055
1589,1.589,109,0.000545
1590,1.59,107,0.000535
1591,1.591,106,0.00053
1592,1.592,105,0.000525
1593,1.593,106,0.00053
1594,1.594,106,0.00053
1595,1.595,107,0.000535
1596,1.596,107,0.000535
1597,1.597,107,0.000535
1598,1.598,106,0.00053
1599,1.599,105,0.000525
1600,1.6,105,0.000525
1601,1.601,105,0.000525
1602,1.602,105,0.000525
1603,1.603,106,0.00053
1604,1.604,105,0.000525
1605,1.605,105,0.000525
1606,1.606,104,0.00052
1607,1.607,103,0.000515
1608,1.608,102,0.00051
1609,1.609,102,0.00051
1610,1.61,102,0.00051
1611,1.611,103,0.000515
1612,1.612,102,0.00051
1613,1.613,102,0.00051
1614,1.614,102,0.00051
1615,1.615,100,0.0005
1616,1.616,98,0.00049
1617,1.617,97,0.000485
1618,1.618,96,0.00048
1619,1.619,95,0.000475
1620,1.62,94,0.00047
1621,1.621,93,0.000465
1622,1.622,91,0.000455
1623,1.623,90,0.00045
1624,1.624,88,0.00044
1625,1.625,87,0.000435
1626,1.626,87,0.000435
1627,1.627,87,0.000435
1628,1.628,88,0.00044
1629,1.629,88,0.00044
1630,1.63,88,0.00044
1631,1.631,87,0.000435
1632,1.632,85,0.000425
1633,1.633,83,0.000415
1634,1.634,82,0.00041
1635,1.635,81,0.000405
1636,1.636,80,0.0004
1637,1.637,79,0.000395
1638,1.638,77,0.000385
1639,1.639,76,0.00038
1640,1.64,76,0.00038
1641,1.641,76,0.00038
1642,1.642,77,0.000385
1643,1.643,76,0.00038
1644,1.644,75,0.000375
1645,1.645,75,0.000375
1646,1.646,76,0.00038
1647,1.647,77,0.000385
1648,1.648,76,0.00038
1649,1.649,75,0.000375
1650,1.65,75,0.000375
1651,1.651,74,0.00037
1652,1.652,73,0.000365
1653,1.653,72,0.00036
1654,1.654,70,0.00035
1655,1.655,69,0.000345
1656,1.656,68,0.00034
1657,1.657,68,0.00034
1658,1.658,67,0.000335
1659,1.659,67,0.000335
1660,1.66,68,0.00034
1661,1.661,70,0.00035
1662,1.662,70,0.00035
1663,1.663,71,0.000355
1664,1.664,72,0.00036
1665,1.665,72,0.00036
1666,1.666,72,0.00036
1667,1.667,71,0.000355
1668,1.668,69,0.000345
1669,1.669,67,0.000335
1670,1.67,65,0.000325
1671,1.671,64,0.00032
1672,1.672,63,0.000315
1673,1.673,63,0.000315
1674,1.674,63,0.000315
1675,1.675,63,0.000315
1676,1.676,63,0.000315
1677,1.677,63,0.000315
1678,1.678,64,0.00032
1679,1.679,65,0.000325
1680,1.68,65,0.000325
1681,1.681,66,0.00033
1682,1.682,67,0.000335
1683,1.683,67,0.000335
1684,1.684,68,0.00034
1685,1.685,68,0.00034
1686,1.686,68,0.00034
1687,1.687,67,0.000335
1688,1.688,65,0.000325
1689,1.689,64,0.00032
1690,1.69,63,0.000315
1691,1.691,63,0.000315
1692,1.692,63,0.000315
1693,1.693,64,0.00032
1694,1.694,65,0.000325
1695,1.695,66,0.00033
1696,1.696,66,0.00033
1697,1.697,66,0.00033
1698,1.698,66,0.00033
1699,1.699,66,0.00033
1700,1.7,66,0.00033
1701,1.701,65,0.000325
1702,1.702,64,0.00032
1703,1.703,63,0.000315
1704,1.704,62,0.00031
1705,1.705,61,0.000305
1706,1.706,60,0.0003
1707,1.707,60,0.0003
1708,1.708,59,0.000295
1709,1.709,60,0.0003
1710,1.71,61,0.000305
1711,1.711,62,0.00031
1712,1.712,65,0.000325
1713,1.713,67,0.000335
1714,1.714,69,0.000345
1715,1.715,71,0.000355
1716,1.716,72,0.00036
1717,1.717,74,0.00037
1718,1.718,74,0.00037
1719,1.719,75,0.000375
1720,1.72,74,0.00037
1721,1.721,72,0.00036
1722,1.722,70,0.00035
1723,1.723,68,0.00034
1724,1.724,67,0.000335
1725,1.725,65,0.000325
1726,1.726,63,0.000315
1727,1.727,62,0.00031
1728,1.728,61,0.000305
1729,1.729,62,0.00031
1730,1.73,64,0.00032
1731,1.731,65,0.000325
1732,1.732,65,0.000325
1733,1.733,66,0.00033
1734,1.734,65,0.000325
1735,1.735,64,0.00032
1736,1.736,63,0.000315
1737,1.737,61,0.000305
1738,1.738,58,0.00029
1739,1.739,56,0.00028
1740,1.74,53,0.000265
1741,1.741,51,0.000255
1742,1.742,48,0.00024
1743,1.743,45,0.000225
1744,1.744,42,0.00021
1745,1.745,40,0.0002
1746,1.746,39,0.000195
1747,1.747,37,0.000185
1748,1.748,36,0.00018
1749,1.749,35,0.000175
1750,1.75,34,0.00017
1751,1.751,33,0.000165
1752,1.752,33,0.000165
1753,1.753,33,0.000165
1754,1.754,32,0.00016
1755,1.755,32,0.00016
1756,1.756,31,0.000155
1757,1.757,29,0.000145
1758,1.758,27,0.000135
1759,1.759,25,0.000125
1760,1.76,23,0.000115
1761,1.761,21,0.000105
1762,1.762,18,9e-05
1763,1.763,15,7.5e-05
1764,1.764,13,6.5e-05
1765,1.765,9,4.5e-05
1766,1.766,5,2.5e-05
1767,1.767,2,1e-05
1768,1.768,-1,-5e-06
1769,1.769,-5,-2.5e-05
1770,1.77,-7,-3.5e-05
1771,1.771,-9,-4.5e-05
1772,1.772,-11,-5.5e-05
1773,1.773,-12,-6e-05
1774,1.774,-13,-6.5e-05
1775,1.775,-14,-7e-05
1776,1.776,-14,-7e-05
1777,1.777,-14,-7e-05
1778,1.778,-13,-6.5e-05
1779,1.779,-14,-7e-05
1780,1.78,-14,-7e-05
1781,1.781,-14,-7e-05
1782,1.782,-14,-7e-05
1783,1.783,-14,-7e-05
1784,1.784,-15,-7.5e-05
1785,1.785,-17,-8.5e-05
1786,1.786,-18,-9e-05
1787,1.787,-20,-0.0001
1788,1.788,-22,-0.00011
1789,1.789,-23,-0.000115
1790,1.79,-26,-0.00013
1791,1.791,-28,-0.00014
1792,1.792,-29,-0.000145
1793,1.793,-29,-0.000145
1794,1.794,-29,-0.000145
1795,1.795,-30,-0.00015
1796,1.796,-30,-0.00015
1797,1.797,-31,-0.000155
1798,1.798,-31,-0.000155
1799,1.799,-31,-0.000155
1800,1.8,-30,-0.00015
1801,1.801,-30,-0.00015
1802,1.802,-30,-0.00015
1803,1.803,-29,-0.000145
1804,1.804,-30,-0.00015
1805,1.805,-31,-0.000155
1806,1.806,-32,-0.00016
1807,1.807,-33,-0.000165
1808,1.808,-34,-0.00017
1809,1.809,-35,-0.000175
1810,1.81,-36,-0.00018
1811,1.811,-37,-0.000185
1812,1.812,-38,-0.00019
1813,1.813,-39,-0.000195
1814,1.814,-39,-0.000195
1815,1.815,-40,-0.0002
1816,1.816,-40,-0.0002
1817,1.817,-41,-0.000205
1818,1.818,-42,-0.00021
1819,1.819,-43,-0.000215
1820,1.82,-44,-0.00022
1821,1.821,-44,-0.00022
1822,1.822,-45,-0.000225
1823,1.823,-46,-0.00023
1824,1.824,-47,-0.000235
1825,1.825,-48,-0.00024
1826,1.826,-49,-0.000245
1827,1.827,-49,-0.000245
1828,1.828,-49,-0.000245
1829,1.829,-49,-0.000245
1830,1.83,-48,-0.00024
1831,1.831,-48,-0.00024
1832,1.832,-48,-0.00024
1833,1.833,-48,-0.00024
1834,1.834,-48,-0.00024
1835,1.835,-49,-0.000245
1836,1.836,-49,-0.000245
1837,1.837,-50,-0.00025
1838,1.838,-51,-0.000255
1839,1.839,-51,-0.000255
1840,1.84,-52,-0.00026
1841,1.841,-52,-0.00026
1842,1.842,-52,-0.00026
1843,1.843,-50,-0.00025
1844,1.844,-49,-0.000245
1845,1.845,-47,-0.000235
1846,1.846,-46,-0.00023
1847,1.847,-44,-0.00022
1848,1.848,-43,-0.000215
1849,1.849,-43,-0.000215
1850,1.85,-42,-0.00021
1851,1.851,-41,-0.000205
1852,1.852,-39,-0.000195
1853,1.853,-37,-0.000185
1854,1.854,-34,-0.00017
1855,1.855,-32,-0.00016
1856,1.856,-28,-0.00014
1857,1.857,-21,-0.000105
1858,1.858,-15,-7.5e-05
1859,1.859,-6,-3e-05
1860,1.86,3,1.5e-05
1861,1.861,13,6.5e-05
1862,1.862,24,0.00012
1863,1.863,35,0.000175
1864,1.864,46,0.00023
1865,1.865,57,0.000285
1866,1.866,68,0.00034
1867,1.867,79,0.000395
1868,1.868,90,0.00045
1869,1.869,100,0.0005
1870,1.87,111,0.000555
1871,1.871,122,0.00061
1872,1.872,134,0.00067
1873,1.873,145,0.000725
1874,1.874,157,0.000785
1875,1.875,169,0.000845
1876,1.876,178,0.00089
1877,1.877,186,0.00093
1878,1.878,193,0.000965
1879,1.879,198,0.00099
1880,1.88,202,0.00101
1881,1.881,205,0.001025
1882,1.882,205,0.001025
1883,1.883,206,0.00103
1884,1.884,201,0.001005
1885,1.885,194,0.00097
1886,1.886,186,0.00093
1887,1.887,172,0.00086
1888,1.888,156,0.00078
1889,1.889,140,0.0007
1890,1.89,121,0.000605
1891,1.891,103,0.000515
1892,1.892,87,0.000435
1893,1.893,76,0.00038
1894,1.894,66,0.00033
1895,1.895,60,0.0003
1896,1.896,59,0.000295
1897,1.897,57,0.000285
1898,1.898,57,0.000285
1899,1.899,58,0.00029
1900,1.9,59,0.000295
1901,1.901,56,0.00028
1902,1.902,53,0.000265
1903,1.903,49,0.000245
1904,1.904,42,0.00021
1905,1.905,34,0.00017
1906,1.906,26,0.00013
1907,1.907,16,8e-05
1908,1.908,7,3.5e-05
1909,1.909,-1,-5e-06
1910,1.91,-6,-3e-05
1911,1.911,-11,-5.5e-05
1912,1.912,-15,-7.5e-05
1913,1.913,-18,-9e-05
1914,1.914,-20,-0.0001
1915,1.915,-19,-9.5e-05
1916,1.916,-18,-9e-05
1917,1.917,-18,-9e-05
1918,1.918,-22,-0.00011
1919,1.919,-25,-0.000125
1920,1.92,-29,-0.000145
1921,1.921,-33,-0.000165
1922,1.922,-37,-0.000185
1923,1.923,-41,-0.000205
1924,1.924,-44,-0.00022
1925,1.925,-48,-0.00024
1926,1.926,-50,-0.00025
1927,1.927,-51,-0.000255
1928,1.928,-52,-0.00026
1929,1.929,-52,-0.00026
1930,1.93,-51,-0.000255
1931,1.931,-52,-0.00026
1932,1.932,-53,-0.000265
1933,1.933,-55,-0.000275
1934,1.934,-56,-0.00028
1935,1.935,-58,-0.00029
1936,1.936,-59,-0.000295
1937,1.937,-60,-0.0003
1938,1.938,-60,-0.0003
1939,1.939,-60,-0.0003
1940,1.94,-58,-0.00029
1941,1.941,-57,-0.000285
1942,1.942,-55,-0.000275
1943,1.943,-53,-0.000265
1944,1.944,-51,-0.000255
1945,1.945,-49,-0.000245
1946,1.946,-46,-0.00023
1947,1.947,-43,-0.000215
1948,1.948,-41,-0.000205
1949,1.949,-40,-0.0002
1950,1.95,-38,-0.00019
1951,1.951,-38,-0.00019
1952,1.952,-37,-0.000185
1953,1.953,-36,-0.00018
1954,1.954,-34,-0.00017
1955,1.955,-32,-0.00016
1956,1.956,-31,-0.000155
1957,1.957,-31,-0.000155
1958,1.958,-30,-0.00015
1959,1.959,-29,-0.000145
1960,1.96,-27,-0.000135
1961,1.961,-26,-0.00013
1962,1.962,-25,-0.000125
1963,1.963,-25,-0.000125
1964,1.964,-25,-0.000125
1965,1.965,-24,-0.00012
1966,1.966,-23,-0.000115
1967,1.967,-22,-0.00011
1968,1.968,-23,-0.000115
1969,1.969,-23,-0.000115
1970,1.97,-24,-0.00012
1971,1.971,-24,-0.00012
1972,1.972,-25,-0.000125
1973,1.973,-24,-0.00012
1974,1.974,-23,-0.000115
1975,1.975,-22,-0.00011
1976,1.976,-20,-0.0001
1977,1.977,-18,-9e-05
1978,1.978,-16,-8e-05
1979,1.979,-15,-7.5e-05
1980,1.98,-14,-7e-05
1981,1.981,-14,-7e-05
1982,1.982,-14,-7e-05
1983,1.983,-15,-7.5e-05
1984,1.984,-16,-8e-05
1985,1.985,-17,-8.5e-05
1986,1.986,-18,-9e-05
1987,1.987,-19,-9.5e-05
1988,1.988,-21,-0.000105
1989,1.989,-22,-0.00011
1990,1.99,-23,-0.000115
1991,1.991,-23,-0.000115
1992,1.992,-23,-0.000115
1993,1.993,-22,-0.00011
1994,1.994,-22,-0.00011
1995,1.995,-21,-0.000105
1996,1.996,-20,-0.0001
1997,1.997,-19,-9.5e-05
1998,1.998,-19,-9.5e-05
1999,1.999,-18,-9e-05
2000,2.0,-17,-8.5e-05
2001,2.001,-17,-8.5e-05
2002,2.002,-17,-8.5e-05
2003,2.003,-16,-8e-05
2004,2.004,-16,-8e-05
2005,2.005,-15,-7.5e-05
2006,2.006,-15,-7.5e-05
2007,2.007,-15,-7.5e-05
2008,2.008,-15,-7.5e-05
2009,2.009,-15,-7.5e-05
2010,2.01,-14,-7e-05
2011,2.011,-13,-6.5e-05
2012,2.012,-14,-7e-05
2013,2.013,-14,-7e-05
2014,2.014,-14,-7e-05
2015,2.015,-15,-7.5e-05
2016,2.016,-16,-8e-05
2017,2.017,-16,-8e-05
2018,2.018,-17,-8.5e-05
2019,2.019,-18,-9e-05
2020,2.02,-19,-9.5e-05
2021,2.021,-20,-0.0001
2022,2.022,-21,-0.000105
2023,2.023,-22,-0.00011
2024,2.024,-22,-0.00011
2025,2.025,-22,-0.00011
2026,2.026,-22,-0.00011
2027,2.027,-21,-0.000105
2028,2.028,-20,-0.0001
2029,2.029,-20,-0.0001
2030,2.03,-19,-9.5e-05
2031,2.031,-19,-9.5e-05
2032,2.032,-18,-9e-05
2033,2.033,-18,-9e-05
2034,2.034,-17,-8.5e-05
2035,2.035,-16,-8e-05
2036,2.036,-14,-7e-05
2037,2.037,-15,-7.5e-05
2038,2.038,-15,-7.5e-05
2039,2.039,-15,-7.5e-05
2040,2.04,-15,-7.5e-05
2041,2.041,-15,-7.5e-05
2042,2.042,-15,-7.5e-05
2043,2.043,-13,-6.5e-05
2044,2.044,-10,-5e-05
2045,2.045,-9,-4.5e-05
2046,2.046,-8,-4e-05
2047,2.047,-7,-3.5e-05
2048,2.048,-5,-2.5e-05
2049,2.049,-3,-1.5e-05
2050,2.05,-1,-5e-06
2051,2.051,-2,-1e-05
2052,2.052,-3,-1.5e-05
2053,2.053,-4,-2e-05
2054,2.054,-4,-2e-05
2055,2.055,-4,-2e-05
2056,2.056,-4,-2e-05
2057,2.057,-3,-1.5e-05
2058,2.058,-3,-1.5e-05
2059,2.059,-1,-5e-06
2060,2.06,1,5e-06
2061,2.061,2,1e-05
2062,2.062,5,2.5e-05
2063,2.063,7,3.5e-05
2064,2.064,9,4.5e-05
2065,2.065,11,5.5e-05
2066,2.066,12,6e-05
2067,2.067,14,7e-05
2068,2.068,16,8e-05
2069,2.069,17,8.5e-05
2070,2.07,18,9e-05
2071,2.071,18,9e-05
2072,2.072,18,9e-05
2073,2.073,17,8.5e-05
2074,2.074,17,8.5e-05
2075,2.075,17,8.5e-05
2076,2.076,18,9e-05
2077,2.077,20,0.0001
2078,2.078,21,0.000105
2079,2.079,22,0.00011
2080,2.08,22,0.00011
2081,2.081,23,0.000115
2082,2.082,23,0.000115
2083,2.083,24,0.00012
2084,2.084,24,0.00012
2085,2.085,24,0.00012
2086,2.086,25,0.000125
2087,2.087,25,0.000125
2088,2.088,25,0.000125
2089,2.089,26,0.00013
2090,2.09,25,0.000125
2091,2.091,24,0.00012
2092,2.092,23,0.000115
2093,2.093,24,0.00012
2094,2.094,24,0.00012
2095,2.095,25,0.000125
2096,2.096,26,0.00013
2097,2.097,27,0.000135
2098,2.098,26,0.00013
2099,2.099,24,0.00012
2100,2.1,23,0.000115
2101,2.101,21,0.000105
2102,2.102,19,9.5e-05
2103,2.103,16,8e-05
2104,2.104,14,7e-05
2105,2.105,11,5.5e-05
2106,2.106,9,4.5e-05
2107,2.107,7,3.5e-05
2108,2.108,5,2.5e-05
2109,2.109,4,2e-05
2110,2.11,4,2e-05
2111,2.111,3,1.5e-05
2112,2.112,3,1.5e-05
2113,2.113,3,1.5e-05
2114,2.114,3,1.5e-05
2115,2.115,4,2e-05
2116,2.116,6,3e-05
2117,2.117,7,3.5e-05
2118,2.118,9,4.5e-05
2119,2.119,10,5e-05
2120,2.12,12,6e-05
2121,2.121,15,7.5e-05
2122,2.122,18,9e-05
2123,2.123,18,9e-05
2124,2.124,17,8.5e-05
2125,2.125,16,8e-05
2126,2.126,16,8e-05
2127,2.127,17,8.5e-05
2128,2.128,18,9e-05
2129,2.129,18,9e-05
2130,2.13,18,9e-05
2131,2.131,18,9e-05
2132,2.132,18,9e-05
2133,2.133,18,9e-05
2134,2.134,18,9e-05
2135,2.135,17,8.5e-05
2136,2.136,17,8.5e-05
2137,2.137,16,8e-05
2138,2.138,15,7.5e-05
2139,2.139,14,7e-05
2140,2.14,13,6.5e-05
2141,2.141,13,6.5e-05
2142,2.142,13,6.5e-05
2143,2.143,13,6.5e-05
2144,2.144,13,6.5e-05
2145,2.145,12,6e-05
2146,2.146,12,6e-05
2147,2.147,11,5.5e-05
2148,2.148,10,5e-05
2149,2.149,9,4.5e-05
2150,2.15,8,4e-05
2151,2.151,7,3.5e-05
2152,2.152,6,3e-05
2153,2.153,5,2.5e-05
2154,2.154,4,2e-05
2155,2.155,2,1e-05
2156,2.156,0,0.0
2157,2.157,-3,-1.5e-05
2158,2.158,-5,-2.5e-05
2159,2.159,-7,-3.5e-05
2160,2.16,-9,-4.5e-05
2161,2.161,-11,-5.5e-05
2162,2.162,-12,-6e-05
2163,2.163,-14,-7e-05
2164,2.164,-15,-7.5e-05
2165,2.165,-17,-8.5e-05
2166,2.166,-18,-9e-05
2167,2.167,-20,-0.0001
2168,2.168,-21,-0.000105
2169,2.169,-22,-0.00011
2170,2.17,-23,-0.000115
2171,2.171,-25,-0.000125
2172,2.172,-28,-0.00014
2173,2.173,-28,-0.00014
2174,2.174,-28,-0.00014
2175,2.175,-28,-0.00014
2176,2.176,-29,-0.000145
2177,2.177,-30,-0.00015
2178,2.178,-30,-0.00015
2179,2.179,-30,-0.00015
2180,2.18,-30,-0.00015
2181,2.181,-31,-0.000155
2182,2.182,-34,-0.00017
2183,2.183,-36,-0.00018
2184,2.184,-38,-0.00019
2185,2.185,-39,-0.000195
2186,2.186,-40,-0.0002
2187,2.187,-42,-0.00021
2188,2.188,-44,-0.00022
2189,2.189,-45,-0.000225
2190,2.19,-46,-0.00023
2191,2.191,-47,-0.000235
2192,2.192,-48,-0.00024
2193,2.193,-46,-0.00023
2194,2.194,-44,-0.00022
2195,2.195,-43,-0.000215
2196,2.196,-44,-0.00022
2197,2.197,-44,-0.00022
2198,2.198,-44,-0.00022
2199,2.199,-44,-0.00022
2200,2.2,-43,-0.000215
2201,2.201,-44,-0.00022
2202,2.202,-44,-0.00022
2203,2.203,-44,-0.00022
2204,2.204,-45,-0.000225
2205,2.205,-46,-0.00023
2206,2.206,-46,-0.00023
2207,2.207,-46,-0.00023
2208,2.208,-46,-0.00023
2209,2.209,-46,-0.00023
2210,2.21,-45,-0.000225
2211,2.211,-43,-0.000215
2212,2.212,-42,-0.00021
2213,2.213,-41,-0.000205
2214,2.214,-39,-0.000195
2215,2.215,-37,-0.000185
2216,2.216,-36,-0.00018
2217,2.217,-34,-0.00017
2218,2.218,-33,-0.000165
2219,2.219,-32,-0.00016
2220,2.22,-31,-0.000155
2221,2.221,-30,-0.00015
2222,2.222,-29,-0.000145
2223,2.223,-29,-0.000145
2224,2.224,-28,-0.00014
2225,2.225,-27,-0.000135
2226,2.226,-27,-0.000135
2227,2.227,-26,-0.00013
2228,2.228,-25,-0.000125
2229,2.229,-23,-0.000115
2230,2.23,-21,-0.000105
2231,2.231,-19,-9.5e-05
2232,2.232,-17,-8.5e-05
2233,2.233,-15,-7.5e-05
2234,2.234,-14,-7e-05
2235,2.235,-14,-7e-05
2236,2.236,-13,-6.5e-05
2237,2.237,-15,-7.5e-05
2238,2.238,-17,-8.5e-05
2239,2.239,-19,-9.5e-05
2240,2.24,-22,-0.00011
2241,2.241,-24,-0.00012
2242,2.242,-27,-0.000135
2243,2.243,-30,-0.00015
2244,2.244,-33,-0.000165
2245,2.245,-34,-0.00017
2246,2.246,-33,-0.000165
2247,2.247,-32,-0.00016
2248,2.248,-33,-0.000165
2249,2.249,-34,-0.00017
2250,2.25,-34,-0.00017
2251,2.251,-34,-0.00017
2252,2.252,-34,-0.00017
2253,2.253,-34,-0.00017
2254,2.254,-36,-0.00018
2255,2.255,-37,-0.000185
2256,2.256,-39,-0.000195
2257,2.257,-40,-0.0002
2258,2.258,-42,-0.00021
2259,2.259,-43,-0.000215
2260,2.26,-44,-0.00022
2261,2.261,-45,-0.000225
2262,2.262,-45,-0.000225
2263,2.263,-45,-0.000225
2264,2.264,-44,-0.00022
2265,2.265,-46,-0.00023
2266,2.266,-47,-0.000235
2267,2.267,-48,-0.00024
2268,2.268,-49,-0.000245
2269,2.269,-50,-0.00025
2270,2.27,-51,-0.000255
2271,2.271,-51,-0.000255
2272,2.272,-52,-0.00026
2273,2.273,-52,-0.00026
2274,2.274,-52,-0.00026
2275,2.275,-52,-0.00026
2276,2.276,-50,-0.00025
2277,2.277,-47,-0.000235
2278,2.278,-44,-0.00022
2279,2.279,-42,-0.00021
2280,2.28,-40,-0.0002
2281,2.281,-39,-0.000195
2282,2.282,-38,-0.00019
2283,2.283,-38,-0.00019
2284,2.284,-38,-0.00019
2285,2.285,-38,-0.00019
2286,2.286,-39,-0.000195
2287,2.287,-38,-0.00019
2288,2.288,-37,-0.000185
2289,2.289,-35,-0.000175
2290,2.29,-34,-0.00017
2291,2.291,-32,-0.00016
2292,2.292,-31,-0.000155
2293,2.293,-28,-0.00014
2294,2.294,-25,-0.000125
2295,2.295,-22,-0.00011
2296,2.296,-18,-9e-05
2297,2.297,-15,-7.5e-05
2298,2.298,-12,-6e-05
2299,2.299,-10,-5e-05
2300,2.3,-7,-3.5e-05
2301,2.301,-3,-1.5e-05
2302,2.302,2,1e-05
2303,2.303,6,3e-05
2304,2.304,8,4e-05
2305,2.305,10,5e-05
2306,2.306,11,5.5e-05
2307,2.307,12,6e-05
2308,2.308,12,6e-05
2309,2.309,11,5.5e-05
2310,2.31,9,4.5e-05
2311,2.311,7,3.5e-05
2312,2.312,7,3.5e-05
2313,2.313,8,4e-05
2314,2.314,9,4.5e-05
2315,2.315,9,4.5e-05
2316,2.316,10,5e-05
2317,2.317,10,5e-05
2318,2.318,9,4.5e-05
2319,2.319,8,4e-05
2320,2.32,8,4e-05
2321,2.321,8,4e-05
2322,2.322,9,4.5e-05
2323,2.323,9,4.5e-05
2324,2.324,9,4.5e-05
2325,2.325,9,4.5e-05
2326,2.326,11,5.5e-05
2327,2.327,13,6.5e-05
2328,2.328,15,7.5e-05
2329,2.329,18,9e-05
2330,2.33,20,0.0001
2331,2.331,22,0.00011
2332,2.332,24,0.00012
2333,2.333,26,0.00013
2334,2.334,27,0.000135
2335,2.335,26,0.00013
2336,2.336,26,0.00013
2337,2.337,24,0.00012
2338,2.338,22,0.00011
2339,2.339,20,0.0001
2340,2.34,17,8.5e-05
2341,2.341,15,7.5e-05
2342,2.342,12,6e-05
2343,2.343,10,5e-05
2344,2.344,8,4e-05
2345,2.345,6,3e-05
2346,2.346,4,2e-05
2347,2.347,2,1e-05
2348,2.348,1,5e-06
2349,2.349,-1,-5e-06
2350,2.35,-2,-1e-05
2351,2.351,-3,-1.5e-05
2352,2.352,-4,-2e-05
2353,2.353,-5,-2.5e-05
2354,2.354,-7,-3.5e-05
2355,2.355,-8,-4e-05
2356,2.356,-8,-4e-05
2357,2.357,-7,-3.5e-05
2358,2.358,-7,-3.5e-05
2359,2.359,-5,-2.5e-05
2360,2.36,-2,-1e-05
2361,2.361,1,5e-06
2362,2.362,5,2.5e-05
2363,2.363,8,4e-05
2364,2.364,12,6e-05
2365,2.365,15,7.5e-05
2366,2.366,19,9.5e-05
2367,2.367,22,0.00011
2368,2.368,23,0.000115
2369,2.369,24,0.00012
2370,2.37,25,0.000125
2371,2.371,25,0.000125
2372,2.372,26,0.00013
2373,2.373,25,0.000125
2374,2.374,24,0.00012
2375,2.375,23,0.000115
2376,2.376,22,0.00011
2377,2.377,21,0.000105
2378,2.378,20,0.0001
2379,2.379,19,9.5e-05
2380,2.38,19,9.5e-05
2381,2.381,19,9.5e-05
2382,2.382,20,0.0001
2383,2.383,20,0.0001
2384,2.384,21,0.000105
2385,2.385,22,0.00011
2386,2.386,23,0.000115
2387,2.387,23,0.000115
2388,2.388,23,0.000115
2389,2.389,24,0.00012
2390,2.39,23,0.000115
2391,2.391,23,0.000115
2392,2.392,22,0.00011
2393,2.393,20,0.0001
2394,2.394,18,9e-05
2395,2.395,16,8e-05
2396,2.396,15,7.5e-05
2397,2.397,14,7e-05
2398,2.398,12,6e-05
2399,2.399,9,4.5e-05
2400,2.4,7,3.5e-05
2401,2.401,8,4e-05
2402,2.402,10,5e-05
2403,2.403,11,5.5e-05
2404,2.404,12,6e-05
2405,2.405,12,6e-05
2406,2.406,14,7e-05
2407,2.407,18,9e-05
2408,2.408,22,0.00011
2409,2.409,27,0.000135
2410,2.41,31,0.000155
2411,2.411,36,0.00018
2412,2.412,39,0.000195
2413,2.413,42,0.00021
2414,2.414,45,0.000225
2415,2.415,46,0.00023
2416,2.416,48,0.00024
2417,2.417,49,0.000245
2418,2.418,48,0.00024
2419,2.419,48,0.00024
2420,2.42,48,0.00024
2421,2.421,47,0.000235
2422,2.422,47,0.000235
2423,2.423,47,0.000235
2424,2.424,49,0.000245
2425,2.425,50,0.00025
2426,2.426,52,0.00026
2427,2.427,54,0.00027
2428,2.428,56,0.00028
2429,2.429,56,0.00028
2430,2.43,56,0.00028
2431,2.431,55,0.000275
2432,2.432,52,0.00026
2433,2.433,49,0.000245
2434,2.434,46,0.00023
2435,2.435,42,0.00021
2436,2.436,38,0.00019
2437,2.437,33,0.000165
2438,2.438,28,0.00014
2439,2.439,23,0.000115
2440,2.44,19,9.5e-05
2441,2.441,15,7.5e-05
2442,2.442,13,6.5e-05
2443,2.443,13,6.5e-05
2444,2.444,14,7e-05
2445,2.445,14,7e-05
2446,2.446,15,7.5e-05
2447,2.447,16,8e-05
2448,2.448,16,8e-05
2449,2.449,16,8e-05
2450,2.45,15,7.5e-05
2451,2.451,15,7.5e-05
2452,2.452,16,8e-05
2453,2.453,17,8.5e-05
2454,2.454,18,9e-05
2455,2.455,20,0.0001
2456,2.456,21,0.000105
2457,2.457,20,0.0001
2458,2.458,20,0.0001
2459,2.459,19,9.5e-05
2460,2.46,17,8.5e-05
2461,2.461,16,8e-05
2462,2.462,17,8.5e-05
2463,2.463,18,9e-05
2464,2.464,19,9.5e-05
2465,2.465,18,9e-05
2466,2.466,17,8.5e-05
2467,2.467,16,8e-05
2468,2.468,16,8e-05
2469,2.469,16,8e-05
2470,2.47,16,8e-05
2471,2.471,15,7.5e-05
2472,2.472,15,7.5e-05
2473,2.473,14,7e-05
2474,2.474,14,7e-05
2475,2.475,14,7e-05
2476,2.476,13,6.5e-05
2477,2.477,13,6.5e-05
2478,2.478,13,6.5e-05
2479,2.479,12,6e-05
2480,2.48,12,6e-05
2481,2.481,12,6e-05
2482,2.482,12,6e-05
2483,2.483,13,6.5e-05
2484,2.484,13,6.5e-05
2485,2.485,12,6e-05
2486,2.486,12,6e-05
2487,2.487,12,6e-05
2488,2.488,12,6e-05
2489,2.489,12,6e-05
2490,2.49,13,6.5e-05
2491,2.491,14,7e-05
2492,2.492,15,7.5e-05
2493,2.493,15,7.5e-05
2494,2.494,16,8e-05
2495,2.495,16,8e-05
2496,2.496,17,8.5e-05
2497,2.497,18,9e-05
2498,2.498,17,8.5e-05
2499,2.499,16,8e-05
2500,2.5,15,7.5e-05
2501,2.501,15,7.5e-05
2502,2.502,16,8e-05
2503,2.503,17,8.5e-05
2504,2.504,19,9.5e-05
2505,2.505,21,0.000105
2506,2.506,23,0.000115
2507,2.507,23,0.000115
2508,2.508,24,0.00012
2509,2.509,24,0.00012
2510,2.51,25,0.000125
2511,2.511,27,0.000135
2512,2.512,27,0.000135
2513,2.513,27,0.000135
2514,2.514,28,0.00014
2515,2.515,28,0.00014
2516,2.516,28,0.00014
2517,2.517,28,0.00014
2518,2.518,30,0.00015
2519,2.519,31,0.000155
2520,2.52,33,0.000165
2521,2.521,35,0.000175
2522,2.522,38,0.00019
2523,2.523,42,0.00021
2524,2.524,47,0.000235
2525,2.525,51,0.000255
2526,2.526,60,0.0003
2527,2.527,70,0.00035
2528,2.528,79,0.000395
2529,2.529,91,0.000455
2530,2.53,102,0.00051
2531,2.531,114,0.00057
2532,2.532,127,0.000635
2533,2.533,140,0.0007
2534,2.534,153,0.000765
2535,2.535,166,0.00083
2536,2.536,179,0.000895
2537,2.537,192,0.00096
2538,2.538,204,0.00102
2539,2.539,216,0.00108
2540,2.54,228,0.00114
2541,2.541,240,0.0012
2542,2.542,251,0.001255
2543,2.543,259,0.001295
2544,2.544,267,0.001335
2545,2.545,274,0.00137
2546,2.546,278,0.00139
2547,2.547,282,0.00141
2548,2.548,282,0.00141
2549,2.549,282,0.00141
2550,2.55,282,0.00141
2551,2.551,276,0.00138
2552,2.552,271,0.001355
2553,2.553,263,0.001315
2554,2.554,247,0.001235
2555,2.555,231,0.001155
2556,2.556,213,0.001065
2557,2.557,191,0.000955
2558,2.558,170,0.00085
2559,2.559,152,0.00076
2560,2.56,137,0.000685
2561,2.561,122,0.00061
2562,2.562,116,0.00058
2563,2.563,111,0.000555
2564,2.564,106,0.00053
2565,2.565,105,0.000525
2566,2.566,105,0.000525
2567,2.567,104,0.00052
2568,2.568,100,0.0005
2569,2.569,97,0.000485
2570,2.57,90,0.00045
2571,2.571,81,0.000405
2572,2.572,72,0.00036
2573,2.573,62,0.00031
2574,2.574,53,0.000265
2575,2.575,43,0.000215
2576,2.576,38,0.00019
2577,2.577,33,0.000165
2578,2.578,29,0.000145
2579,2.579,29,0.000145
2580,2.58,29,0.000145
2581,2.581,29,0.000145
2582,2.582,28,0.00014
2583,2.583,28,0.00014
2584,2.584,26,0.00013
2585,2.585,23,0.000115
2586,2.586,20,0.0001
2587,2.587,17,8.5e-05
2588,2.588,15,7.5e-05
2589,2.589,12,6e-05
2590,2.59,9,4.5e-05
2591,2.591,7,3.5e-05
2592,2.592,4,2e-05
2593,2.593,2,1e-05
2594,2.594,1,5e-06
2595,2.595,-1,-5e-06
2596,2.596,-2,-1e-05
2597,2.597,-3,-1.5e-05
2598,2.598,-4,-2e-05
2599,2.599,-5,-2.5e-05
2600,2.6,-6,-3e-05
2601,2.601,-7,-3.5e-05
2602,2.602,-8,-4e-05
2603,2.603,-9,-4.5e-05
2604,2.604,-7,-3.5e-05
2605,2.605,-5,-2.5e-05
2606,2.606,-2,-1e-05
2607,2.607,0,0.0
2608,2.608,2,1e-05
2609,2.609,4,2e-05
2610,2.61,7,3.5e-05
2611,2.611,10,5e-05
2612,2.612,12,6e-05
2613,2.613,15,7.5e-05
2614,2.614,17,8.5e-05
2615,2.615,20,0.0001
2616,2.616,23,0.000115
2617,2.617,25,0.000125
2618,2.618,28,0.00014
2619,2.619,30,0.00015
2620,2.62,33,0.000165
2621,2.621,35,0.000175
2622,2.622,37,0.000185
2623,2.623,38,0.00019
2624,2.624,40,0.0002
2625,2.625,41,0.000205
2626,2.626,42,0.00021
2627,2.627,43,0.000215
2628,2.628,45,0.000225
2629,2.629,44,0.00022
2630,2.63,43,0.000215
2631,2.631,43,0.000215
2632,2.632,42,0.00021
2633,2.633,42,0.00021
2634,2.634,42,0.00021
2635,2.635,43,0.000215
2636,2.636,44,0.00022
2637,2.637,44,0.00022
2638,2.638,44,0.00022
2639,2.639,44,0.00022
2640,2.64,43,0.000215
2641,2.641,43,0.000215
2642,2.642,43,0.000215
2643,2.643,45,0.000225
2644,2.644,46,0.00023
2645,2.645,47,0.000235
2646,2.646,49,0.000245
2647,2.647,50,0.00025
2648,2.648,50,0.00025
2649,2.649,50,0.00025
2650,2.65,50,0.00025
2651,2.651,48,0.00024
2652,2.652,47,0.000235
2653,2.653,45,0.000225
2654,2.654,44,0.00022
2655,2.655,42,0.00021
2656,2.656,41,0.000205
2657,2.657,40,0.0002
2658,2.658,40,0.0002
2659,2.659,40,0.0002
2660,2.66,40,0.0002
2661,2.661,40,0.0002
2662,2.662,41,0.000205
2663,2.663,44,0.00022
2664,2.664,46,0.00023
2665,2.665,48,0.00024
2666,2.666,50,0.00025
2667,2.667,52,0.00026
2668,2.668,53,0.000265
2669,2.669,53,0.000265
2670,2.67,54,0.00027
2671,2.671,54,0.00027
2672,2.672,55,0.000275
2673,2.673,54,0.00027
2674,2.674,52,0.00026
2675,2.675,51,0.000255
2676,2.676,49,0.000245
2677,2.677,48,0.00024
2678,2.678,47,0.000235
2679,2.679,46,0.00023
2680,2.68,46,0.00023
2681,2.681,46,0.00023
2682,2.682,45,0.000225
2683,2.683,45,0.000225
2684,2.684,44,0.00022
2685,2.685,44,0.00022
2686,2.686,43,0.000215
2687,2.687,41,0.000205
2688,2.688,39,0.000195
2689,2.689,37,0.000185
2690,2.69,34,0.00017
2691,2.691,31,0.000155
2692,2.692,28,0.00014
2693,2.693,27,0.000135
2694,2.694,25,0.000125
2695,2.695,24,0.00012
2696,2.696,23,0.000115
2697,2.697,22,0.00011
2698,2.698,21,0.000105
2699,2.699,20,0.0001
2700,2.7,19,9.5e-05
2701,2.701,17,8.5e-05
2702,2.702,15,7.5e-05
2703,2.703,12,6e-05
2704,2.704,11,5.5e-05
2705,2.705,9,4.5e-05
2706,2.706,7,3.5e-05
2707,2.707,6,3e-05
2708,2.708,4,2e-05
2709,2.709,4,2e-05
2710,2.71,3,1.5e-05
2711,2.711,3,1.5e-05
2712,2.712,3,1.5e-05
2713,2.713,3,1.5e-05
2714,2.714,3,1.5e-05
2715,2.715,3,1.5e-05
2716,2.716,3,1.5e-05
2717,2.717,2,1e-05
2718,2.718,0,0.0
2719,2.719,-3,-1.5e-05
2720,2.72,-5,-2.5e-05
2721,2.721,-8,-4e-05
2722,2.722,-11,-5.5e-05
2723,2.723,-14,-7e-05
2724,2.724,-17,-8.5e-05
2725,2.725,-20,-0.0001
2726,2.726,-20,-0.0001
2727,2.727,-20,-0.0001
2728,2.728,-19,-9.5e-05
2729,2.729,-18,-9e-05
2730,2.73,-16,-8e-05
2731,2.731,-16,-8e-05
2732,2.732,-16,-8e-05
2733,2.733,-17,-8.5e-05
2734,2.734,-18,-9e-05
2735,2.735,-20,-0.0001
2736,2.736,-21,-0.000105
2737,2.737,-24,-0.00012
2738,2.738,-28,-0.00014
2739,2.739,-31,-0.000155
2740,2.74,-35,-0.000175
2741,2.741,-38,-0.00019
2742,2.742,-41,-0.000205
2743,2.743,-42,-0.00021
2744,2.744,-44,-0.00022
2745,2.745,-45,-0.000225
2746,2.746,-45,-0.000225
2747,2.747,-46,-0.00023
2748,2.748,-47,-0.000235
2749,2.749,-47,-0.000235
2750,2.75,-48,-0.00024
2751,2.751,-49,-0.000245
2752,2.752,-50,-0.00025
2753,2.753,-50,-0.00025
2754,2.754,-51,-0.000255
2755,2.755,-52,-0.00026
2756,2.756,-53,-0.000265
2757,2.757,-53,-0.000265
2758,2.758,-54,-0.00027
2759,2.759,-53,-0.000265
2760,2.76,-52,-0.00026
2761,2.761,-51,-0.000255
2762,2.762,-49,-0.000245
2763,2.763,-48,-0.00024
2764,2.764,-46,-0.00023
2765,2.765,-45,-0.000225
2766,2.766,-44,-0.00022
2767,2.767,-44,-0.00022
2768,2.768,-45,-0.000225
2769,2.769,-47,-0.000235
2770,2.77,-47,-0.000235
2771,2.771,-47,-0.000235
2772,2.772,-47,-0.000235
2773,2.773,-47,-0.000235
2774,2.774,-47,-0.000235
2775,2.775,-46,-0.00023
2776,2.776,-46,-0.00023
2777,2.777,-46,-0.00023
2778,2.778,-46,-0.00023
2779,2.779,-47,-0.000235
2780,2.78,-48,-0.00024
2781,2.781,-48,-0.00024
2782,2.782,-49,-0.000245
2783,2.783,-49,-0.000245
2784,2.784,-50,-0.00025
2785,2.785,-51,-0.000255
2786,2.786,-52,-0.00026
2787,2.787,-54,-0.00027
2788,2.788,-56,-0.00028
2789,2.789,-57,-0.000285
2790,2.79,-58,-0.00029
2791,2.791,-58,-0.00029
2792,2.792,-58,-0.00029
2793,2.793,-57,-0.000285
2794,2.794,-57,-0.000285
2795,2.795,-56,-0.00028
2796,2.796,-56,-0.00028
2797,2.797,-56,-0.00028
2798,2.798,-56,-0.00028
2799,2.799,-56,-0.00028
2800,2.8,-55,-0.000275
2801,2.801,-57,-0.000285
2802,2.802,-59,-0.000295
2803,2.803,-61,-0.000305
2804,2.804,-62,-0.00031
2805,2.805,-63,-0.000315
2806,2.806,-64,-0.00032
2807,2.807,-64,-0.00032
2808,2.808,-65,-0.000325
2809,2.809,-65,-0.000325
2810,2.81,-64,-0.00032
2811,2.811,-63,-0.000315
2812,2.812,-62,-0.00031
2813,2.813,-59,-0.000295
2814,2.814,-57,-0.000285
2815,2.815,-57,-0.000285
2816,2.816,-56,-0.00028
2817,2.817,-55,-0.000275
2818,2.818,-55,-0.000275
2819,2.819,-54,-0.00027
2820,2.82,-55,-0.000275
2821,2.821,-57,-0.000285
2822,2.822,-59,-0.000295
2823,2.823,-59,-0.000295
2824,2.824,-59,-0.000295
2825,2.825,-58,-0.00029
2826,2.826,-54,-0.00027
2827,2.827,-50,-0.00025
2828,2.828,-46,-0.00023
2829,2.829,-43,-0.000215
2830,2.83,-39,-0.000195
2831,2.831,-36,-0.00018
2832,2.832,-34,-0.00017
2833,2.833,-31,-0.000155
2834,2.834,-29,-0.000145
2835,2.835,-27,-0.000135
2836,2.836,-25,-0.000125
2837,2.837,-24,-0.00012
2838,2.838,-23,-0.000115
2839,2.839,-22,-0.00011
2840,2.84,-20,-0.0001
2841,2.841,-18,-9e-05
2842,2.842,-15,-7.5e-05
2843,2.843,-12,-6e-05
2844,2.844,-8,-4e-05
2845,2.845,-5,-2.5e-05
2846,2.846,-3,-1.5e-05
2847,2.847,0,0.0
2848,2.848,2,1e-05
2849,2.849,4,2e-05
2850,2.85,7,3.5e-05
2851,2.851,9,4.5e-05
2852,2.852,12,6e-05
2853,2.853,14,7e-05
2854,2.854,15,7.5e-05
2855,2.855,17,8.5e-05
2856,2.856,19,9.5e-05
2857,2.857,23,0.000115
2858,2.858,26,0.00013
2859,2.859,29,0.000145
2860,2.86,31,0.000155
2861,2.861,33,0.000165
2862,2.862,37,0.000185
2863,2.863,42,0.00021
2864,2.864,46,0.00023
2865,2.865,50,0.00025
2866,2.866,54,0.00027
2867,2.867,59,0.000295
2868,2.868,62,0.00031
2869,2.869,65,0.000325
2870,2.87,67,0.000335
2871,2.871,68,0.00034
2872,2.872,69,0.000345
2873,2.873,70,0.00035
2874,2.874,71,0.000355
2875,2.875,72,0.00036
2876,2.876,73,0.000365
2877,2.877,74,0.00037
2878,2.878,75,0.000375
2879,2.879,75,0.000375
2880,2.88,76,0.00038
2881,2.881,76,0.00038
2882,2.882,76,0.00038
2883,2.883,76,0.00038
2884,2.884,74,0.00037
2885,2.885,72,0.00036
2886,2.886,70,0.00035
2887,2.887,69,0.000345
2888,2.888,68,0.00034
2889,2.889,68,0.00034
2890,2.89,68,0.00034
2891,2.891,69,0.000345
2892,2.892,70,0.00035
2893,2.893,71,0.000355
2894,2.894,72,0.00036
2895,2.895,74,0.00037
2896,2.896,76,0.00038
2897,2.897,78,0.00039
2898,2.898,80,0.0004
2899,2.899,81,0.000405
2900,2.9,83,0.000415
2901,2.901,83,0.000415
2902,2.902,84,0.00042
2903,2.903,85,0.000425
2904,2.904,86,0.00043
2905,2.905,87,0.000435
2906,2.906,88,0.00044
2907,2.907,89,0.000445
2908,2.908,90,0.00045
2909,2.909,93,0.000465
2910,2.91,97,0.000485
2911,2.911,101,0.000505
2912,2.912,105,0.000525
2913,2.913,108,0.00054
2914,2.914,112,0.00056
2915,2.915,113,0.000565
2916,2.916,115,0.000575
2917,2.917,116,0.00058
2918,2.918,116,0.00058
2919,2.919,117,0.000585
2920,2.92,117,0.000585
2921,2.921,118,0.00059
2922,2.922,119,0.000595
2923,2.923,119,0.000595
2924,2.924,119,0.000595
2925,2.925,118,0.00059
2926,2.926,118,0.00059
2927,2.927,119,0.000595
2928,2.928,120,0.0006
2929,2.929,121,0.000605
2930,2.93,121,0.000605
2931,2.931,122,0.00061
2932,2.932,122,0.00061
2933,2.933,122,0.00061
2934,2.934,122,0.00061
2935,2.935,122,0.00061
2936,2.936,123,0.000615
2937,2.937,122,0.00061
2938,2.938,121,0.000605
2939,2.939,121,0.000605
2940,2.94,121,0.000605
2941,2.941,121,0.000605
2942,2.942,121,0.000605
2943,2.943,123,0.000615
2944,2.944,124,0.00062
2945,2.945,125,0.000625
2946,2.946,126,0.00063
2947,2.947,127,0.000635
2948,2.948,127,0.000635
2949,2.949,127,0.000635
2950,2.95,128,0.00064
2951,2.951,128,0.00064
2952,2.952,128,0.00064
2953,2.953,129,0.000645
2954,2.954,127,0.000635
2955,2.955,126,0.00063
2956,2.956,124,0.00062
2957,2.957,124,0.00062
2958,2.958,123,0.000615
2959,2.959,122,0.00061
2960,2.96,121,0.000605
2961,2.961,120,0.0006
2962,2.962,119,0.000595
2963,2.963,117,0.000585
2964,2.964,116,0.00058
2965,2.965,115,0.000575
2966,2.966,115,0.000575
2967,2.967,114,0.00057
2968,2.968,113,0.000565
2969,2.969,112,0.00056
2970,2.97,112,0.00056
2971,2.971,112,0.00056
2972,2.972,112,0.00056
2973,2.973,111,0.000555
2974,2.974,110,0.00055
2975,2.975,109,0.000545
2976,2.976,109,0.000545
2977,2.977,109,0.000545
2978,2.978,110,0.00055
2979,2.979,110,0.00055
2980,2.98,110,0.00055
2981,2.981,109,0.000545
2982,2.982,109,0.000545
2983,2.983,108,0.00054
2984,2.984,107,0.000535
2985,2.985,106,0.00053
2986,2.986,105,0.000525
2987,2.987,104,0.00052
2988,2.988,102,0.00051
2989,2.989,101,0.000505
2990,2.99,99,0.000495
2991,2.991,97,0.000485
2992,2.992,95,0.000475
2993,2.993,94,0.00047
2994,2.994,92,0.00046
2995,2.995,91,0.000455
2996,2.996,90,0.00045
2997,2.997,88,0.00044
2998,2.998,86,0.00043
2999,2.999,84,0.00042
3000,3.0,82,0.00041
3001,3.001,81,0.000405
3002,3.002,80,0.0004
3003,3.003,78,0.00039
3004,3.004,76,0.00038
3005,3.005,74,0.00037
3006,3.006,72,0.00036
3007,3.007,69,0.000345
3008,3.008,67,0.000335
3009,3.009,64,0.00032
3010,3.01,62,0.00031
3011,3.011,59,0.000295
3012,3.012,57,0.000285
3013,3.013,55,0.000275
3014,3.014,54,0.00027
3015,3.015,51,0.000255
3016,3.016,49,0.000245
3017,3.017,46,0.00023
3018,3.018,43,0.000215
3019,3.019,39,0.000195
3020,3.02,37,0.000185
3021,3.021,34,0.00017
3022,3.022,32,0.00016
3023,3.023,30,0.00015
3024,3.024,28,0.00014
3025,3.025,27,0.000135
3026,3.026,26,0.00013
3027,3.027,25,0.000125
3028,3.028,25,0.000125
3029,3.029,24,0.00012
3030,3.03,24,0.00012
3031,3.031,23,0.000115
3032,3.032,22,0.00011
3033,3.033,21,0.000105
3034,3.034,20,0.0001
3035,3.035,18,9e-05
3036,3.036,16,8e-05
3037,3.037,14,7e-05
3038,3.038,11,5.5e-05
3039,3.039,9,4.5e-05
3040,3.04,4,2e-05
3041,3.041,0,0.0
3042,3.042,-4,-2e-05
3043,3.043,-7,-3.5e-05
3044,3.044,-11,-5.5e-05
3045,3.045,-14,-7e-05
3046,3.046,-17,-8.5e-05
3047,3.047,-20,-0.0001
3048,3.048,-23,-0.000115
3049,3.049,-25,-0.000125
3050,3.05,-27,-0.000135
3051,3.051,-28,-0.00014
3052,3.052,-29,-0.000145
3053,3.053,-31,-0.000155
3054,3.054,-34,-0.00017
3055,3.055,-36,-0.00018
3056,3.056,-39,-0.000195
3057,3.057,-42,-0.00021
3058,3.058,-45,-0.000225
3059,3.059,-49,-0.000245
3060,3.06,-54,-0.00027
3061,3.061,-58,-0.00029
3062,3.062,-63,-0.000315
3063,3.063,-67,-0.000335
3064,3.064,-71,-0.000355
3065,3.065,-75,-0.000375
3066,3.066,-79,-0.000395
3067,3.067,-82,-0.00041
3068,3.068,-85,-0.000425
3069,3.069,-88,-0.00044
3070,3.07,-90,-0.00045
3071,3.071,-92,-0.00046
3072,3.072,-94,-0.00047
3073,3.073,-96,-0.00048
3074,3.074,-98,-0.00049
3075,3.075,-100,-0.0005
3076,3.076,-104,-0.00052
3077,3.077,-109,-0.000545
3078,3.078,-113,-0.000565
3079,3.079,-116,-0.00058
3080,3.08,-118,-0.00059
3081,3.081,-122,-0.00061
3082,3.082,-127,-0.000635
3083,3.083,-132,-0.00066
3084,3.084,-136,-0.00068
3085,3.085,-140,-0.0007
3086,3.086,-144,-0.00072
3087,3.087,-147,-0.000735
3088,3.088,-151,-0.000755
3089,3.089,-154,-0.00077
3090,3.09,-157,-0.000785
3091,3.091,-160,-0.0008
3092,3.092,-163,-0.000815
3093,3.093,-167,-0.000835
3094,3.094,-170,-0.00085
3095,3.095,-174,-0.00087
3096,3.096,-179,-0.000895
3097,3.097,-184,-0.00092
3098,3.098,-189,-0.000945
3099,3.099,-194,-0.00097
3100,3.1,-200,-0.001
3101,3.101,-205,-0.001025
3102,3.102,-211,-0.001055
3103,3.103,-216,-0.00108
3104,3.104,-221,-0.001105
3105,3.105,-227,-0.001135
3106,3.106,-231,-0.001155
3107,3.107,-235,-0.001175
3108,3.108,-238,-0.00119
3109,3.109,-239,-0.001195
3110,3.11,-239,-0.001195
3111,3.111,-238,-0.00119
3112,3.112,-238,-0.00119
3113,3.113,-238,-0.00119
3114,3.114,-237,-0.001185
3115,3.115,-237,-0.001185
3116,3.116,-237,-0.001185
3117,3.117,-236,-0.00118
3118,3.118,-237,-0.001185
3119,3.119,-237,-0.001185
3120,3.12,-238,-0.00119
3121,3.121,-239,-0.001195
3122,3.122,-241,-0.001205
3123,3.123,-242,-0.00121
3124,3.124,-242,-0.00121
3125,3.125,-242,-0.00121
3126,3.126,-241,-0.001205
3127,3.127,-239,-0.001195
3128,3.128,-237,-0.001185
3129,3.129,-232,-0.00116
3130,3.13,-227,-0.001135
3131,3.131,-219,-0.001095
3132,3.132,-208,-0.00104
3133,3.133,-197,-0.000985
3134,3.134,-183,-0.000915
3135,3.135,-167,-0.000835
3136,3.136,-152,-0.00076
3137,3.137,-135,-0.000675
3138,3.138,-119,-0.000595
3139,3.139,-103,-0.000515
3140,3.14,-89,-0.000445
3141,3.141,-75,-0.000375
3142,3.142,-61,-0.000305
3143,3.143,-46,-0.00023
3144,3.144,-32,-0.00016
3145,3.145,-18,-9e-05
3146,3.146,-5,-2.5e-05
3147,3.147,8,4e-05
3148,3.148,20,0.0001
3149,3.149,31,0.000155
3150,3.15,43,0.000215
3151,3.151,55,0.000275
3152,3.152,67,0.000335
3153,3.153,79,0.000395
3154,3.154,90,0.00045
3155,3.155,100,0.0005
3156,3.156,111,0.000555
3157,3.157,122,0.00061
3158,3.158,133,0.000665
3159,3.159,146,0.00073
3160,3.16,159,0.000795
3161,3.161,173,0.000865
3162,3.162,185,0.000925
3163,3.163,196,0.00098
3164,3.164,208,0.00104
3165,3.165,217,0.001085
3166,3.166,225,0.001125
3167,3.167,234,0.00117
3168,3.168,242,0.00121
3169,3.169,249,0.001245
3170,3.17,258,0.00129
3171,3.171,268,0.00134
3172,3.172,279,0.001395
3173,3.173,289,0.001445
3174,3.174,299,0.001495
3175,3.175,310,0.00155
3176,3.176,320,0.0016
3177,3.177,330,0.00165
3178,3.178,339,0.001695
3179,3.179,345,0.001725
3180,3.18,351,0.001755
3181,3.181,356,0.00178
3182,3.182,359,0.001795
3183,3.183,362,0.00181
3184,3.184,366,0.00183
3185,3.185,371,0.001855
3186,3.186,376,0.00188
3187,3.187,383,0.001915
3188,3.188,390,0.00195
3189,3.189,398,0.00199
3190,3.19,407,0.002035
3191,3.191,417,0.002085
3192,3.192,426,0.00213
3193,3.193,434,0.00217
3194,3.194,442,0.00221
3195,3.195,451,0.002255
3196,3.196,460,0.0023
3197,3.197,470,0.00235
3198,3.198,477,0.002385
3199,3.199,482,0.00241
3200,3.2,488,0.00244
3201,3.201,493,0.002465
3202,3.202,497,0.002485
3203,3.203,501,0.002505
3204,3.204,502,0.00251
3205,3.205,502,0.00251
3206,3.206,502,0.00251
3207,3.207,500,0.0025
3208,3.208,499,0.002495
3209,3.209,496,0.00248
3210,3.21,493,0.002465
3211,3.211,489,0.002445
3212,3.212,486,0.00243
3213,3.213,482,0.00241
3214,3.214,479,0.002395
3215,3.215,468,0.00234
3216,3.216,458,0.00229
3217,3.217,447,0.002235
3218,3.218,429,0.002145
3219,3.219,412,0.00206
3220,3.22,392,0.00196
3221,3.221,369,0.001845
3222,3.222,345,0.001725
3223,3.223,325,0.001625
3224,3.224,307,0.001535
3225,3.225,289,0.001445
3226,3.226,281,0.001405
3227,3.227,274,0.00137
3228,3.228,267,0.001335
3229,3.229,264,0.00132
3230,3.23,262,0.00131
3231,3.231,258,0.00129
3232,3.232,252,0.00126
3233,3.233,246,0.00123
3234,3.234,237,0.001185
3235,3.235,225,0.001125
3236,3.236,212,0.00106
3237,3.237,198,0.00099
3238,3.238,183,0.000915
3239,3.239,169,0.000845
3240,3.24,157,0.000785
3241,3.241,146,0.00073
3242,3.242,135,0.000675
3243,3.243,128,0.00064
3244,3.244,121,0.000605
3245,3.245,115,0.000575
3246,3.246,109,0.000545
3247,3.247,104,0.00052
3248,3.248,96,0.00048
3249,3.249,87,0.000435
3250,3.25,78,0.00039
3251,3.251,66,0.00033
3252,3.252,55,0.000275
3253,3.253,44,0.00022
3254,3.254,34,0.00017
3255,3.255,25,0.000125
3256,3.256,15,7.5e-05
3257,3.257,6,3e-05
3258,3.258,-4,-2e-05
3259,3.259,-12,-6e-05
3260,3.26,-20,-0.0001
3261,3.261,-27,-0.000135
3262,3.262,-33,-0.000165
3263,3.263,-39,-0.000195
3264,3.264,-45,-0.000225
3265,3.265,-52,-0.00026
3266,3.266,-58,-0.00029
3267,3.267,-65,-0.000325
3268,3.268,-72,-0.00036
3269,3.269,-79,-0.000395
3270,3.27,-85,-0.000425
3271,3.271,-92,-0.00046
3272,3.272,-98,-0.00049
3273,3.273,-103,-0.000515
3274,3.274,-108,-0.00054
3275,3.275,-113,-0.000565
3276,3.276,-117,-0.000585
3277,3.277,-121,-0.000605
3278,3.278,-126,-0.00063
3279,3.279,-130,-0.00065
3280,3.28,-134,-0.00067
3281,3.281,-138,-0.00069
3282,3.282,-142,-0.00071
3283,3.283,-146,-0.00073
3284,3.284,-151,-0.000755
3285,3.285,-157,-0.000785
3286,3.286,-162,-0.00081
3287,3.287,-166,-0.00083
3288,3.288,-169,-0.000845
3289,3.289,-172,-0.00086
3290,3.29,-175,-0.000875
3291,3.291,-177,-0.000885
3292,3.292,-180,-0.0009
3293,3.293,-182,-0.00091
3294,3.294,-185,-0.000925
3295,3.295,-187,-0.000935
3296,3.296,-190,-0.00095
3297,3.297,-192,-0.00096
3298,3.298,-195,-0.000975
3299,3.299,-199,-0.000995
3300,3.3,-202,-0.00101
3301,3.301,-204,-0.00102
3302,3.302,-205,-0.001025
3303,3.303,-207,-0.001035
3304,3.304,-210,-0.00105
3305,3.305,-212,-0.00106
3306,3.306,-214,-0.00107
3307,3.307,-214,-0.00107
3308,3.308,-214,-0.00107
3309,3.309,-216,-0.00108
3310,3.31,-219,-0.001095
3311,3.311,-222,-0.00111
3312,3.312,-225,-0.001125
3313,3.313,-228,-0.00114
3314,3.314,-231,-0.001155
3315,3.315,-235,-0.001175
3316,3.316,-239,-0.001195
3317,3.317,-243,-0.001215
3318,3.318,-245,-0.001225
3319,3.319,-248,-0.00124
3320,3.32,-250,-0.00125
3321,3.321,-253,-0.001265
3322,3.322,-255,-0.001275
3323,3.323,-257,-0.001285
3324,3.324,-257,-0.001285
3325,3.325,-258,-0.00129
3326,3.326,-257,-0.001285
3327,3.327,-256,-0.00128
3328,3.328,-254,-0.00127
3329,3.329,-253,-0.001265
3330,3.33,-251,-0.001255
3331,3.331,-250,-0.00125
3332,3.332,-249,-0.001245
3333,3.333,-248,-0.00124
3334,3.334,-246,-0.00123
3335,3.335,-244,-0.00122
3336,3.336,-243,-0.001215
3337,3.337,-241,-0.001205
3338,3.338,-240,-0.0012
3339,3.339,-238,-0.00119
3340,3.34,-236,-0.00118
3341,3.341,-234,-0.00117
3342,3.342,-232,-0.00116
3343,3.343,-228,-0.00114
3344,3.344,-225,-0.001125
3345,3.345,-222,-0.00111
3346,3.346,-220,-0.0011
3347,3.347,-218,-0.00109
3348,3.348,-216,-0.00108
3349,3.349,-215,-0.001075
3350,3.35,-213,-0.001065
3351,3.351,-211,-0.001055
3352,3.352,-208,-0.00104
3353,3.353,-205,-0.001025
3354,3.354,-200,-0.001
3355,3.355,-196,-0.00098
3356,3.356,-192,-0.00096
3357,3.357,-187,-0.000935
3358,3.358,-183,-0.000915
3359,3.359,-179,-0.000895
3360,3.36,-176,-0.00088
3361,3.361,-172,-0.00086
3362,3.362,-170,-0.00085
3363,3.363,-169,-0.000845
3364,3.364,-168,-0.00084
3365,3.365,-165,-0.000825
3366,3.366,-162,-0.00081
3367,3.367,-160,-0.0008
3368,3.368,-158,-0.00079
3369,3.369,-157,-0.000785
3370,3.37,-156,-0.00078
3371,3.371,-155,-0.000775
3372,3.372,-155,-0.000775
3373,3.373,-154,-0.00077
3374,3.374,-153,-0.000765
3375,3.375,-152,-0.00076
3376,3.376,-151,-0.000755
3377,3.377,-150,-0.00075
3378,3.378,-149,-0.000745
3379,3.379,-147,-0.000735
3380,3.38,-145,-0.000725
3381,3.381,-142,-0.00071
3382,3.382,-139,-0.000695
3383,3.383,-136,-0.00068
3384,3.384,-132,-0.00066
3385,3.385,-128,-0.00064
3386,3.386,-123,-0.000615
3387,3.387,-120,-0.0006
3388,3.388,-118,-0.00059
3389,3.389,-115,-0.000575
3390,3.39,-116,-0.00058
3391,3.391,-116,-0.00058
3392,3.392,-117,-0.000585
3393,3.393,-121,-0.000605
3394,3.394,-124,-0.00062
3395,3.395,-127,-0.000635
3396,3.396,-129,-0.000645
3397,3.397,-131,-0.000655
3398,3.398,-131,-0.000655
3399,3.399,-130,-0.00065
3400,3.4,-129,-0.000645
3401,3.401,-127,-0.000635
3402,3.402,-124,-0.00062
3403,3.403,-121,-0.000605
3404,3.404,-118,-0.00059
3405,3.405,-115,-0.000575
3406,3.406,-113,-0.000565
3407,3.407,-112,-0.00056
3408,3.408,-112,-0.00056
3409,3.409,-111,-0.000555
3410,3.41,-111,-0.000555
3411,3.411,-110,-0.00055
3412,3.412,-109,-0.000545
3413,3.413,-107,-0.000535
3414,3.414,-105,-0.000525
3415,3.415,-101,-0.000505
3416,3.416,-96,-0.00048
3417,3.417,-90,-0.00045
3418,3.418,-80,-0.0004
3419,3.419,-71,-0.000355
3420,3.42,-60,-0.0003
3421,3.421,-48,-0.00024
3422,3.422,-36,-0.00018
3423,3.423,-27,-0.000135
3424,3.424,-19,-9.5e-05
3425,3.425,-11,-5.5e-05
3426,3.426,-8,-4e-05
3427,3.427,-5,-2.5e-05
3428,3.428,-3,-1.5e-05
3429,3.429,-2,-1e-05
3430,3.43,-2,-1e-05
3431,3.431,-1,-5e-06
3432,3.432,-1,-5e-06
3433,3.433,0,0.0
3434,3.434,2,1e-05
3435,3.435,6,3e-05
3436,3.436,10,5e-05
3437,3.437,16,8e-05
3438,3.438,23,0.000115
3439,3.439,30,0.00015
3440,3.44,37,0.000185
3441,3.441,44,0.00022
3442,3.442,51,0.000255
3443,3.443,59,0.000295
3444,3.444,67,0.000335
3445,3.445,74,0.00037
3446,3.446,81,0.000405
3447,3.447,88,0.00044
3448,3.448,94,0.00047
3449,3.449,100,0.0005
3450,3.45,106,0.00053
3451,3.451,111,0.000555
3452,3.452,116,0.00058
3453,3.453,120,0.0006
3454,3.454,125,0.000625
3455,3.455,130,0.00065
3456,3.456,134,0.00067
3457,3.457,138,0.00069
3458,3.458,141,0.000705
3459,3.459,147,0.000735
3460,3.46,153,0.000765
3461,3.461,160,0.0008
3462,3.462,166,0.00083
3463,3.463,171,0.000855
3464,3.464,177,0.000885
3465,3.465,183,0.000915
3466,3.466,190,0.00095
3467,3.467,196,0.00098
3468,3.468,202,0.00101
3469,3.469,208,0.00104
3470,3.47,215,0.001075
3471,3.471,221,0.001105
3472,3.472,227,0.001135
3473,3.473,233,0.001165
3474,3.474,238,0.00119
3475,3.475,244,0.00122
3476,3.476,247,0.001235
3477,3.477,249,0.001245
3478,3.478,251,0.001255
3479,3.479,255,0.001275
3480,3.48,258,0.00129
3481,3.481,261,0.001305
3482,3.482,263,0.001315
3483,3.483,265,0.001325
3484,3.484,267,0.001335
3485,3.485,269,0.001345
3486,3.486,270,0.00135
3487,3.487,272,0.00136
3488,3.488,275,0.001375
3489,3.489,277,0.001385
3490,3.49,278,0.00139
3491,3.491,279,0.001395
3492,3.492,280,0.0014
3493,3.493,283,0.001415
3494,3.494,285,0.001425
3495,3.495,288,0.00144
3496,3.496,291,0.001455
3497,3.497,295,0.001475
3498,3.498,299,0.001495
3499,3.499,304,0.00152
3500,3.5,308,0.00154
3501,3.501,313,0.001565
3502,3.502,317,0.001585
3503,3.503,321,0.001605
3504,3.504,325,0.001625
3505,3.505,328,0.00164
3506,3.506,331,0.001655
3507,3.507,332,0.00166
3508,3.508,333,0.001665
3509,3.509,335,0.001675
3510,3.51,337,0.001685
3511,3.511,338,0.00169
3512,3.512,339,0.001695
3513,3.513,339,0.001695
3514,3.514,339,0.001695
3515,3.515,337,0.001685
3516,3.516,336,0.00168
3517,3.517,334,0.00167
3518,3.518,331,0.001655
3519,3.519,328,0.00164
3520,3.52,324,0.00162
3521,3.521,318,0.00159
3522,3.522,313,0.001565
3523,3.523,308,0.00154
3524,3.524,303,0.001515
3525,3.525,298,0.00149
3526,3.526,294,0.00147
3527,3.527,290,0.00145
3528,3.528,286,0.00143
3529,3.529,282,0.00141
3530,3.53,278,0.00139
3531,3.531,273,0.001365
3532,3.532,269,0.001345
3533,3.533,265,0.001325
3534,3.534,261,0.001305
3535,3.535,258,0.00129
3536,3.536,254,0.00127
3537,3.537,252,0.00126
3538,3.538,251,0.001255
3539,3.539,249,0.001245
3540,3.54,245,0.001225
3541,3.541,242,0.00121
3542,3.542,239,0.001195
3543,3.543,236,0.00118
3544,3.544,233,0.001165
3545,3.545,229,0.001145
3546,3.546,226,0.00113
3547,3.547,222,0.00111
3548,3.548,218,0.00109
3549,3.549,214,0.00107
3550,3.55,209,0.001045
3551,3.551,205,0.001025
3552,3.552,201,0.001005
3553,3.553,197,0.000985
3554,3.554,195,0.000975
3555,3.555,192,0.00096
3556,3.556,189,0.000945
3557,3.557,184,0.00092
3558,3.558,180,0.0009
3559,3.559,176,0.00088
3560,3.56,172,0.00086
3561,3.561,169,0.000845
3562,3.562,166,0.00083
3563,3.563,163,0.000815
3564,3.564,161,0.000805
3565,3.565,160,0.0008
3566,3.566,159,0.000795
3567,3.567,159,0.000795
3568,3.568,158,0.00079
3569,3.569,157,0.000785
3570,3.57,156,0.00078
3571,3.571,155,0.000775
3572,3.572,154,0.00077
3573,3.573,154,0.00077
3574,3.574,156,0.00078
3575,3.575,157,0.000785
3576,3.576,158,0.00079
3577,3.577,160,0.0008
3578,3.578,162,0.00081
3579,3.579,163,0.000815
3580,3.58,163,0.000815
3581,3.581,164,0.00082
3582,3.582,163,0.000815
3583,3.583,163,0.000815
3584,3.584,161,0.000805
3585,3.585,159,0.000795
3586,3.586,156,0.00078
3587,3.587,154,0.00077
3588,3.588,152,0.00076
3589,3.589,150,0.00075
3590,3.59,149,0.000745
3591,3.591,148,0.00074
3592,3.592,146,0.00073
3593,3.593,145,0.000725
3594,3.594,144,0.00072
3595,3.595,143,0.000715
3596,3.596,142,0.00071
3597,3.597,140,0.0007
3598,3.598,138,0.00069
3599,3.599,134,0.00067
3600,3.6,131,0.000655
3601,3.601,128,0.00064
3602,3.602,125,0.000625
3603,3.603,122,0.00061
3604,3.604,120,0.0006
3605,3.605,118,0.00059
3606,3.606,116,0.00058
3607,3.607,115,0.000575
3608,3.608,114,0.00057
3609,3.609,113,0.000565
3610,3.61,112,0.00056
3611,3.611,111,0.000555
3612,3.612,110,0.00055
3613,3.613,109,0.000545
3614,3.614,108,0.00054
3615,3.615,106,0.00053
3616,3.616,103,0.000515
3617,3.617,101,0.000505
3618,3.618,99,0.000495
3619,3.619,96,0.00048
3620,3.62,93,0.000465
3621,3.621,88,0.00044
3622,3.622,84,0.00042
3623,3.623,79,0.000395
3624,3.624,74,0.00037
3625,3.625,68,0.00034
3626,3.626,64,0.00032
3627,3.627,60,0.0003
3628,3.628,56,0.00028
3629,3.629,52,0.00026
3630,3.63,48,0.00024
3631,3.631,44,0.00022
3632,3.632,38,0.00019
3633,3.633,32,0.00016
3634,3.634,28,0.00014
3635,3.635,24,0.00012
3636,3.636,20,0.0001
3637,3.637,16,8e-05
3638,3.638,12,6e-05
3639,3.639,8,4e-05
3640,3.64,4,2e-05
3641,3.641,1,5e-06
3642,3.642,-3,-1.5e-05
3643,3.643,-4,-2e-05
3644,3.644,-5,-2.5e-05
3645,3.645,-6,-3e-05
3646,3.646,-8,-4e-05
3647,3.647,-10,-5e-05
3648,3.648,-12,-6e-05
3649,3.649,-15,-7.5e-05
3650,3.65,-18,-9e-05
3651,3.651,-22,-0.00011
3652,3.652,-26,-0.00013
3653,3.653,-30,-0.00015
3654,3.654,-32,-0.00016
3655,3.655,-35,-0.000175
3656,3.656,-38,-0.00019
3657,3.657,-39,-0.000195
3658,3.658,-40,-0.0002
3659,3.659,-40,-0.0002
3660,3.66,-40,-0.0002
3661,3.661,-39,-0.000195
3662,3.662,-39,-0.000195
3663,3.663,-39,-0.000195
3664,3.664,-39,-0.000195
3665,3.665,-40,-0.0002
3666,3.666,-41,-0.000205
3667,3.667,-43,-0.000215
3668,3.668,-44,-0.00022
3669,3.669,-45,-0.000225
3670,3.67,-46,-0.00023
3671,3.671,-47,-0.000235
3672,3.672,-48,-0.00024
3673,3.673,-48,-0.00024
3674,3.674,-47,-0.000235
3675,3.675,-46,-0.00023
3676,3.676,-46,-0.00023
3677,3.677,-46,-0.00023
3678,3.678,-45,-0.000225
3679,3.679,-44,-0.00022
3680,3.68,-42,-0.00021
3681,3.681,-41,-0.000205
3682,3.682,-41,-0.000205
3683,3.683,-41,-0.000205
3684,3.684,-41,-0.000205
3685,3.685,-41,-0.000205
3686,3.686,-41,-0.000205
3687,3.687,-41,-0.000205
3688,3.688,-40,-0.0002
3689,3.689,-39,-0.000195
3690,3.69,-40,-0.0002
3691,3.691,-40,-0.0002
3692,3.692,-40,-0.0002
3693,3.693,-37,-0.000185
3694,3.694,-35,-0.000175
3695,3.695,-33,-0.000165
3696,3.696,-32,-0.00016
3697,3.697,-31,-0.000155
3698,3.698,-29,-0.000145
3699,3.699,-27,-0.000135
3700,3.7,-25,-0.000125
3701,3.701,-24,-0.00012
3702,3.702,-24,-0.00012
3703,3.703,-23,-0.000115
3704,3.704,-25,-0.000125
3705,3.705,-26,-0.00013
3706,3.706,-28,-0.00014
3707,3.707,-29,-0.000145
3708,3.708,-31,-0.000155
3709,3.709,-30,-0.00015
3710,3.71,-28,-0.00014
3711,3.711,-26,-0.00013
3712,3.712,-23,-0.000115
3713,3.713,-21,-0.000105
3714,3.714,-18,-9e-05
3715,3.715,-15,-7.5e-05
3716,3.716,-13,-6.5e-05
3717,3.717,-10,-5e-05
3718,3.718,-7,-3.5e-05
3719,3.719,-5,-2.5e-05
3720,3.72,-2,-1e-05
3721,3.721,0,0.0
3722,3.722,2,1e-05
3723,3.723,3,1.5e-05
3724,3.724,5,2.5e-05
3725,3.725,6,3e-05
3726,3.726,6,3e-05
3727,3.727,6,3e-05
3728,3.728,7,3.5e-05
3729,3.729,8,4e-05
3730,3.73,9,4.5e-05
3731,3.731,10,5e-05
3732,3.732,12,6e-05
3733,3.733,14,7e-05
3734,3.734,16,8e-05
3735,3.735,17,8.5e-05
3736,3.736,18,9e-05
3737,3.737,20,0.0001
3738,3.738,21,0.000105
3739,3.739,22,0.00011
3740,3.74,20,0.0001
3741,3.741,17,8.5e-05
3742,3.742,15,7.5e-05
3743,3.743,14,7e-05
3744,3.744,13,6.5e-05
3745,3.745,11,5.5e-05
3746,3.746,9,4.5e-05
3747,3.747,7,3.5e-05
3748,3.748,5,2.5e-05
3749,3.749,3,1.5e-05
3750,3.75,1,5e-06
3751,3.751,0,0.0
3752,3.752,0,0.0
3753,3.753,0,0.0
3754,3.754,-1,-5e-06
3755,3.755,-2,-1e-05
3756,3.756,-3,-1.5e-05
3757,3.757,-4,-2e-05
3758,3.758,-6,-3e-05
3759,3.759,-8,-4e-05
3760,3.76,-12,-6e-05
3761,3.761,-16,-8e-05
3762,3.762,-19,-9.5e-05
3763,3.763,-22,-0.00011
3764,3.764,-24,-0.00012
3765,3.765,-30,-0.00015
3766,3.766,-35,-0.000175
3767,3.767,-40,-0.0002
3768,3.768,-44,-0.00022
3769,3.769,-47,-0.000235
3770,3.77,-50,-0.00025
3771,3.771,-53,-0.000265
3772,3.772,-55,-0.000275
3773,3.773,-58,-0.00029
3774,3.774,-60,-0.0003
3775,3.775,-62,-0.00031
3776,3.776,-62,-0.00031
3777,3.777,-62,-0.00031
3778,3.778,-61,-0.000305
3779,3.779,-62,-0.00031
3780,3.78,-63,-0.000315
3781,3.781,-63,-0.000315
3782,3.782,-64,-0.00032
3783,3.783,-64,-0.00032
3784,3.784,-65,-0.000325
3785,3.785,-67,-0.000335
3786,3.786,-68,-0.00034
3787,3.787,-69,-0.000345
3788,3.788,-70,-0.00035
3789,3.789,-70,-0.00035
3790,3.79,-70,-0.00035
3791,3.791,-70,-0.00035
3792,3.792,-69,-0.000345
3793,3.793,-68,-0.00034
3794,3.794,-68,-0.00034
3795,3.795,-67,-0.000335
3796,3.796,-68,-0.00034
3797,3.797,-68,-0.00034
3798,3.798,-69,-0.000345
3799,3.799,-69,-0.000345
3800,3.8,-69,-0.000345
3801,3.801,-70,-0.00035
3802,3.802,-71,-0.000355
3803,3.803,-71,-0.000355
3804,3.804,-73,-0.000365
3805,3.805,-74,-0.00037
3806,3.806,-76,-0.00038
3807,3.807,-77,-0.000385
3808,3.808,-78,-0.00039
3809,3.809,-78,-0.00039
3810,3.81,-78,-0.00039
3811,3.811,-77,-0.000385
3812,3.812,-77,-0.000385
3813,3.813,-77,-0.000385
3814,3.814,-76,-0.00038
3815,3.815,-77,-0.000385
3816,3.816,-77,-0.000385
3817,3.817,-77,-0.000385
3818,3.818,-77,-0.000385
3819,3.819,-77,-0.000385
3820,3.82,-77,-0.000385
3821,3.821,-78,-0.00039
3822,3.822,-78,-0.00039
3823,3.823,-78,-0.00039
3824,3.824,-78,-0.00039
3825,3.825,-78,-0.00039
3826,3.826,-80,-0.0004
3827,3.827,-81,-0.000405
3828,3.828,-82,-0.00041
3829,3.829,-83,-0.000415
3830,3.83,-84,-0.00042
3831,3.831,-84,-0.00042
3832,3.832,-83,-0.000415
3833,3.833,-83,-0.000415
3834,3.834,-83,-0.000415
3835,3.835,-83,-0.000415
3836,3.836,-84,-0.00042
3837,3.837,-85,-0.000425
3838,3.838,-87,-0.000435
3839,3.839,-88,-0.00044
3840,3.84,-88,-0.00044
3841,3.841,-88,-0.00044
3842,3.842,-88,-0.00044
3843,3.843,-87,-0.000435
3844,3.844,-87,-0.000435
3845,3.845,-85,-0.000425
3846,3.846,-82,-0.00041
3847,3.847,-78,-0.00039
3848,3.848,-75,-0.000375
3849,3.849,-71,-0.000355
3850,3.85,-68,-0.00034
3851,3.851,-60,-0.0003
3852,3.852,-51,-0.000255
3853,3.853,-42,-0.00021
3854,3.854,-31,-0.000155
3855,3.855,-21,-0.000105
3856,3.856,-9,-4.5e-05
3857,3.857,5,2.5e-05
3858,3.858,19,9.5e-05
3859,3.859,32,0.00016
3860,3.86,46,0.00023
3861,3.861,60,0.0003
3862,3.862,74,0.00037
3863,3.863,88,0.00044
3864,3.864,102,0.00051
3865,3.865,115,0.000575
3866,3.866,129,0.000645
3867,3.867,142,0.00071
3868,3.868,155,0.000775
3869,3.869,167,0.000835
3870,3.87,177,0.000885
3871,3.871,185,0.000925
3872,3.872,193,0.000965
3873,3.873,198,0.00099
3874,3.874,201,0.001005
3875,3.875,203,0.001015
3876,3.876,201,0.001005
3877,3.877,198,0.00099
3878,3.878,195,0.000975
3879,3.879,185,0.000925
3880,3.88,176,0.00088
3881,3.881,163,0.000815
3882,3.882,144,0.00072
3883,3.883,124,0.00062
3884,3.884,105,0.000525
3885,3.885,84,0.00042
3886,3.886,64,0.00032
3887,3.887,52,0.00026
3888,3.888,42,0.00021
3889,3.889,32,0.00016
3890,3.89,30,0.00015
3891,3.891,28,0.00014
3892,3.892,27,0.000135
3893,3.893,28,0.00014
3894,3.894,30,0.00015
3895,3.895,30,0.00015
3896,3.896,28,0.00014
3897,3.897,26,0.00013
3898,3.898,21,0.000105
3899,3.899,14,7e-05
3900,3.9,8,4e-05
3901,3.901,-1,-5e-06
3902,3.902,-10,-5e-05
3903,3.903,-18,-9e-05
3904,3.904,-24,-0.00012
3905,3.905,-31,-0.000155
3906,3.906,-36,-0.00018
3907,3.907,-39,-0.000195
3908,3.908,-41,-0.000205
3909,3.909,-42,-0.00021
3910,3.91,-41,-0.000205
3911,3.911,-40,-0.0002
3912,3.912,-42,-0.00021
3913,3.913,-43,-0.000215
3914,3.914,-45,-0.000225
3915,3.915,-47,-0.000235
3916,3.916,-49,-0.000245
3917,3.917,-51,-0.000255
3918,3.918,-54,-0.00027
3919,3.919,-57,-0.000285
3920,3.92,-60,-0.0003
3921,3.921,-62,-0.00031
3922,3.922,-65,-0.000325
3923,3.923,-68,-0.00034
3924,3.924,-70,-0.00035
3925,3.925,-72,-0.00036
3926,3.926,-74,-0.00037
3927,3.927,-75,-0.000375
3928,3.928,-76,-0.00038
3929,3.929,-78,-0.00039
3930,3.93,-79,-0.000395
3931,3.931,-80,-0.0004
3932,3.932,-79,-0.000395
3933,3.933,-79,-0.000395
3934,3.934,-79,-0.000395
3935,3.935,-79,-0.000395
3936,3.936,-80,-0.0004
3937,3.937,-80,-0.0004
3938,3.938,-79,-0.000395
3939,3.939,-78,-0.00039
3940,3.94,-79,-0.000395
3941,3.941,-80,-0.0004
3942,3.942,-80,-0.0004
3943,3.943,-80,-0.0004
3944,3.944,-79,-0.000395
3945,3.945,-80,-0.0004
3946,3.946,-80,-0.0004
3947,3.947,-81,-0.000405
3948,3.948,-81,-0.000405
3949,3.949,-81,-0.000405
3950,3.95,-81,-0.000405
3951,3.951,-81,-0.000405
3952,3.952,-80,-0.0004
3953,3.953,-79,-0.000395
3954,3.954,-80,-0.0004
3955,3.955,-81,-0.000405
3956,3.956,-82,-0.00041
3957,3.957,-83,-0.000415
3958,3.958,-84,-0.00042
3959,3.959,-84,-0.00042
3960,3.96,-84,-0.00042
3961,3.961,-84,-0.00042
3962,3.962,-83,-0.000415
3963,3.963,-82,-0.00041
3964,3.964,-81,-0.000405
3965,3.965,-83,-0.000415
3966,3.966,-85,-0.000425
3967,3.967,-86,-0.00043
3968,3.968,-86,-0.00043
3969,3.969,-85,-0.000425
3970,3.97,-85,-0.000425
3971,3.971,-86,-0.00043
3972,3.972,-86,-0.00043
3973,3.973,-87,-0.000435
3974,3.974,-87,-0.000435
3975,3.975,-88,-0.00044
3976,3.976,-88,-0.00044
3977,3.977,-87,-0.000435
3978,3.978,-86,-0.00043
3979,3.979,-85,-0.000425
3980,3.98,-84,-0.00042
3981,3.981,-84,-0.00042
3982,3.982,-85,-0.000425
3983,3.983,-86,-0.00043
3984,3.984,-87,-0.000435
3985,3.985,-87,-0.000435
3986,3.986,-88,-0.00044
3987,3.987,-89,-0.000445
3988,3.988,-90,-0.00045
3989,3.989,-90,-0.00045
3990,3.99,-91,-0.000455
3991,3.991,-92,-0.00046
3992,3.992,-93,-0.000465
3993,3.993,-93,-0.000465
3994,3.994,-92,-0.00046
3995,3.995,-93,-0.000465
3996,3.996,-94,-0.00047
3997,3.997,-96,-0.00048
3998,3.998,-96,-0.00048
3999,3.999,-95,-0.000475
4000,4.0,-94,-0.00047
4001,4.001,-95,-0.000475
4002,4.002,-95,-0.000475
4003,4.003,-95,-0.000475
4004,4.004,-96,-0.00048
4005,4.005,-97,-0.000485
4006,4.006,-97,-0.000485
4007,4.007,-97,-0.000485
4008,4.008,-97,-0.000485
4009,4.009,-97,-0.000485
4010,4.01,-96,-0.00048
4011,4.011,-95,-0.000475
4012,4.012,-95,-0.000475
4013,4.013,-94,-0.00047
4014,4.014,-93,-0.000465
4015,4.015,-92,-0.00046
4016,4.016,-91,-0.000455
4017,4.017,-91,-0.000455
4018,4.018,-92,-0.00046
4019,4.019,-93,-0.000465
4020,4.02,-93,-0.000465
4021,4.021,-93,-0.000465
4022,4.022,-92,-0.00046
4023,4.023,-92,-0.00046
4024,4.024,-92,-0.00046
4025,4.025,-92,-0.00046
4026,4.026,-90,-0.00045
4027,4.027,-88,-0.00044
4028,4.028,-85,-0.000425
4029,4.029,-84,-0.00042
4030,4.03,-82,-0.00041
4031,4.031,-80,-0.0004
4032,4.032,-77,-0.000385
4033,4.033,-75,-0.000375
4034,4.034,-73,-0.000365
4035,4.035,-73,-0.000365
4036,4.036,-72,-0.00036
4037,4.037,-72,-0.00036
4038,4.038,-71,-0.000355
4039,4.039,-70,-0.00035
4040,4.04,-71,-0.000355
4041,4.041,-71,-0.000355
4042,4.042,-71,-0.000355
4043,4.043,-68,-0.00034
4044,4.044,-66,-0.00033
4045,4.045,-63,-0.000315
4046,4.046,-61,-0.000305
4047,4.047,-58,-0.00029
4048,4.048,-57,-0.000285
4049,4.049,-55,-0.000275
4050,4.05,-54,-0.00027
4051,4.051,-53,-0.000265
4052,4.052,-52,-0.00026
4053,4.053,-51,-0.000255
4054,4.054,-50,-0.00025
4055,4.055,-50,-0.00025
4056,4.056,-49,-0.000245
4057,4.057,-48,-0.00024
4058,4.058,-48,-0.00024
4059,4.059,-46,-0.00023
4060,4.06,-44,-0.00022
4061,4.061,-43,-0.000215
4062,4.062,-42,-0.00021
4063,4.063,-42,-0.00021
4064,4.064,-42,-0.00021
4065,4.065,-40,-0.0002
4066,4.066,-39,-0.000195
4067,4.067,-37,-0.000185
4068,4.068,-35,-0.000175
4069,4.069,-33,-0.000165
4070,4.07,-32,-0.00016
4071,4.071,-32,-0.00016
4072,4.072,-32,-0.00016
4073,4.073,-32,-0.00016
4074,4.074,-30,-0.00015
4075,4.075,-29,-0.000145
4076,4.076,-29,-0.000145
4077,4.077,-29,-0.000145
4078,4.078,-28,-0.00014
4079,4.079,-28,-0.00014
4080,4.08,-28,-0.00014
4081,4.081,-28,-0.00014
4082,4.082,-28,-0.00014
4083,4.083,-27,-0.000135
4084,4.084,-27,-0.000135
4085,4.085,-26,-0.00013
4086,4.086,-25,-0.000125
4087,4.087,-26,-0.00013
4088,4.088,-27,-0.000135
4089,4.089,-27,-0.000135
4090,4.09,-28,-0.00014
4091,4.091,-29,-0.000145
4092,4.092,-30,-0.00015
4093,4.093,-29,-0.000145
4094,4.094,-29,-0.000145
4095,4.095,-28,-0.00014
4096,4.096,-29,-0.000145
4097,4.097,-29,-0.000145
4098,4.098,-29,-0.000145
4099,4.099,-29,-0.000145
4100,4.1,-29,-0.000145
4101,4.101,-30,-0.00015
4102,4.102,-31,-0.000155
4103,4.103,-31,-0.000155
4104,4.104,-30,-0.00015
4105,4.105,-29,-0.000145
4106,4.106,-29,-0.000145
4107,4.107,-29,-0.000145
4108,4.108,-30,-0.00015
4109,4.109,-29,-0.000145
4110,4.11,-27,-0.000135
4111,4.111,-25,-0.000125
4112,4.112,-24,-0.00012
4113,4.113,-24,-0.00012
4114,4.114,-24,-0.00012
4115,4.115,-24,-0.00012
4116,4.116,-23,-0.000115
4117,4.117,-23,-0.000115
4118,4.118,-24,-0.00012
4119,4.119,-25,-0.000125
4120,4.12,-27,-0.000135
4121,4.121,-28,-0.00014
4122,4.122,-29,-0.000145
4123,4.123,-30,-0.00015
4124,4.124,-30,-0.00015
4125,4.125,-30,-0.00015
4126,4.126,-31,-0.000155
4127,4.127,-31,-0.000155
4128,4.128,-31,-0.000155
4129,4.129,-31,-0.000155
4130,4.13,-31,-0.000155
4131,4.131,-32,-0.00016
4132,4.132,-33,-0.000165
4133,4.133,-34,-0.00017
4134,4.134,-34,-0.00017
4135,4.135,-34,-0.00017
4136,4.136,-33,-0.000165
4137,4.137,-35,-0.000175
4138,4.138,-37,-0.000185
4139,4.139,-39,-0.000195
4140,4.14,-39,-0.000195
4141,4.141,-39,-0.000195
4142,4.142,-39,-0.000195
4143,4.143,-40,-0.0002
4144,4.144,-41,-0.000205
4145,4.145,-42,-0.00021
4146,4.146,-42,-0.00021
4147,4.147,-43,-0.000215
4148,4.148,-43,-0.000215
4149,4.149,-43,-0.000215
4150,4.15,-43,-0.000215
4151,4.151,-43,-0.000215
4152,4.152,-43,-0.000215
4153,4.153,-42,-0.00021
4154,4.154,-43,-0.000215
4155,4.155,-45,-0.000225
4156,4.156,-46,-0.00023
4157,4.157,-46,-0.00023
4158,4.158,-47,-0.000235
4159,4.159,-47,-0.000235
4160,4.16,-47,-0.000235
4161,4.161,-46,-0.00023
4162,4.162,-47,-0.000235
4163,4.163,-47,-0.000235
4164,4.164,-47,-0.000235
4165,4.165,-48,-0.00024
4166,4.166,-48,-0.00024
4167,4.167,-48,-0.00024
4168,4.168,-48,-0.00024
4169,4.169,-48,-0.00024
4170,4.17,-49,-0.000245
4171,4.171,-50,-0.00025
4172,4.172,-51,-0.000255
4173,4.173,-52,-0.00026
4174,4.174,-52,-0.00026
4175,4.175,-53,-0.000265
4176,4.176,-52,-0.00026
4177,4.177,-51,-0.000255
4178,4.178,-50,-0.00025
4179,4.179,-50,-0.00025
4180,4.18,-50,-0.00025
4181,4.181,-49,-0.000245
4182,4.182,-49,-0.000245
4183,4.183,-48,-0.00024
4184,4.184,-48,-0.00024
4185,4.185,-48,-0.00024
4186,4.186,-48,-0.00024
4187,4.187,-48,-0.00024
4188,4.188,-47,-0.000235
4189,4.189,-46,-0.00023
4190,4.19,-47,-0.000235
4191,4.191,-48,-0.00024
4192,4.192,-48,-0.00024
4193,4.193,-46,-0.00023
4194,4.194,-44,-0.00022
4195,4.195,-43,-0.000215
4196,4.196,-43,-0.000215
4197,4.197,-43,-0.000215
4198,4.198,-44,-0.00022
4199,4.199,-44,-0.00022
4200,4.2,-44,-0.00022
4201,4.201,-45,-0.000225
4202,4.202,-46,-0.00023
4203,4.203,-47,-0.000235
4204,4.204,-48,-0.00024
4205,4.205,-48,-0.00024
4206,4.206,-48,-0.00024
4207,4.207,-49,-0.000245
4208,4.208,-50,-0.00025
4209,4.209,-50,-0.00025
4210,4.21,-50,-0.00025
4211,4.211,-49,-0.000245
4212,4.212,-49,-0.000245
4213,4.213,-49,-0.000245
4214,4.214,-49,-0.000245
4215,4.215,-49,-0.000245
4216,4.216,-49,-0.000245
4217,4.217,-49,-0.000245
4218,4.218,-50,-0.00025
4219,4.219,-51,-0.000255
4220,4.22,-53,-0.000265
4221,4.221,-54,-0.00027
4222,4.222,-55,-0.000275
4223,4.223,-56,-0.00028
4224,4.224,-56,-0.00028
4225,4.225,-56,-0.00028
4226,4.226,-56,-0.00028
4227,4.227,-56,-0.00028
4228,4.228,-55,-0.000275
4229,4.229,-55,-0.000275
4230,4.23,-55,-0.000275
4231,4.231,-54,-0.00027
4232,4.232,-55,-0.000275
4233,4.233,-56,-0.00028
4234,4.234,-57,-0.000285
4235,4.235,-58,-0.00029
4236,4.236,-59,-0.000295
4237,4.237,-60,-0.0003
4238,4.238,-60,-0.0003
4239,4.239,-60,-0.0003
4240,4.24,-61,-0.000305
4241,4.241,-61,-0.000305
4242,4.242,-61,-0.000305
4243,4.243,-61,-0.000305
4244,4.244,-61,-0.000305
4245,4.245,-62,-0.00031
4246,4.246,-63,-0.000315
4247,4.247,-64,-0.00032
4248,4.248,-65,-0.000325
4249,4.249,-66,-0.00033
4250,4.25,-67,-0.000335
4251,4.251,-69,-0.000345
4252,4.252,-71,-0.000355
4253,4.253,-72,-0.00036
4254,4.254,-74,-0.00037
4255,4.255,-75,-0.000375
4256,4.256,-76,-0.00038
4257,4.257,-77,-0.000385
4258,4.258,-78,-0.00039
4259,4.259,-79,-0.000395
4260,4.26,-79,-0.000395
4261,4.261,-80,-0.0004
4262,4.262,-82,-0.00041
4263,4.263,-84,-0.00042
4264,4.264,-86,-0.00043
4265,4.265,-87,-0.000435
4266,4.266,-87,-0.000435
4267,4.267,-88,-0.00044
4268,4.268,-91,-0.000455
4269,4.269,-94,-0.00047
4270,4.27,-96,-0.00048
4271,4.271,-98,-0.00049
4272,4.272,-101,-0.000505
4273,4.273,-103,-0.000515
4274,4.274,-105,-0.000525
4275,4.275,-107,-0.000535
4276,4.276,-109,-0.000545
4277,4.277,-111,-0.000555
4278,4.278,-112,-0.00056
4279,4.279,-113,-0.000565
4280,4.28,-115,-0.000575
4281,4.281,-115,-0.000575
4282,4.282,-116,-0.00058
4283,4.283,-117,-0.000585
4284,4.284,-118,-0.00059
4285,4.285,-119,-0.000595
4286,4.286,-121,-0.000605
4287,4.287,-122,-0.00061
4288,4.288,-123,-0.000615
4289,4.289,-124,-0.00062
4290,4.29,-124,-0.00062
4291,4.291,-124,-0.00062
4292,4.292,-123,-0.000615
4293,4.293,-125,-0.000625
4294,4.294,-126,-0.00063
4295,4.295,-127,-0.000635
4296,4.296,-127,-0.000635
4297,4.297,-128,-0.00064
4298,4.298,-129,-0.000645
4299,4.299,-130,-0.00065
4300,4.3,-131,-0.000655
4301,4.301,-132,-0.00066
4302,4.302,-133,-0.000665
4303,4.303,-134,-0.00067
4304,4.304,-137,-0.000685
4305,4.305,-139,-0.000695
4306,4.306,-141,-0.000705
4307,4.307,-142,-0.00071
4308,4.308,-143,-0.000715
4309,4.309,-143,-0.000715
4310,4.31,-143,-0.000715
4311,4.311,-143,-0.000715
4312,4.312,-144,-0.00072
4313,4.313,-145,-0.000725
4314,4.314,-145,-0.000725
4315,4.315,-145,-0.000725
4316,4.316,-145,-0.000725
4317,4.317,-146,-0.00073
4318,4.318,-147,-0.000735
4319,4.319,-149,-0.000745
4320,4.32,-150,-0.00075
4321,4.321,-150,-0.00075
4322,4.322,-149,-0.000745
4323,4.323,-149,-0.000745
4324,4.324,-148,-0.00074
4325,4.325,-147,-0.000735
4326,4.326,-146,-0.00073
4327,4.327,-145,-0.000725
4328,4.328,-144,-0.00072
4329,4.329,-143,-0.000715
4330,4.33,-141,-0.000705
4331,4.331,-140,-0.0007
4332,4.332,-141,-0.000705
4333,4.333,-142,-0.00071
4334,4.334,-142,-0.00071
4335,4.335,-141,-0.000705
4336,4.336,-140,-0.0007
4337,4.337,-138,-0.00069
4338,4.338,-137,-0.000685
4339,4.339,-135,-0.000675
4340,4.34,-134,-0.00067
4341,4.341,-132,-0.00066
4342,4.342,-131,-0.000655
4343,4.343,-129,-0.000645
4344,4.344,-127,-0.000635
4345,4.345,-125,-0.000625
4346,4.346,-123,-0.000615
4347,4.347,-121,-0.000605
4348,4.348,-120,-0.0006
4349,4.349,-120,-0.0006
4350,4.35,-120,-0.0006
4351,4.351,-120,-0.0006
4352,4.352,-119,-0.000595
4353,4.353,-118,-0.00059
4354,4.354,-116,-0.00058
4355,4.355,-115,-0.000575
4356,4.356,-112,-0.00056
4357,4.357,-109,-0.000545
4358,4.358,-107,-0.000535
4359,4.359,-103,-0.000515
4360,4.36,-98,-0.00049
4361,4.361,-92,-0.00046
4362,4.362,-88,-0.00044
4363,4.363,-83,-0.000415
4364,4.364,-78,-0.00039
4365,4.365,-74,-0.00037
4366,4.366,-70,-0.00035
4367,4.367,-66,-0.00033
4368,4.368,-64,-0.00032
4369,4.369,-62,-0.00031
4370,4.37,-60,-0.0003
4371,4.371,-59,-0.000295
4372,4.372,-58,-0.00029
4373,4.373,-55,-0.000275
4374,4.374,-52,-0.00026
4375,4.375,-49,-0.000245
4376,4.376,-45,-0.000225
4377,4.377,-42,-0.00021
4378,4.378,-39,-0.000195
4379,4.379,-36,-0.00018
4380,4.38,-32,-0.00016
4381,4.381,-30,-0.00015
4382,4.382,-27,-0.000135
4383,4.383,-25,-0.000125
4384,4.384,-24,-0.00012
4385,4.385,-23,-0.000115
4386,4.386,-22,-0.00011
4387,4.387,-21,-0.000105
4388,4.388,-20,-0.0001
4389,4.389,-19,-9.5e-05
4390,4.39,-16,-8e-05
4391,4.391,-12,-6e-05
4392,4.392,-9,-4.5e-05
4393,4.393,-5,-2.5e-05
4394,4.394,-1,-5e-06
4395,4.395,2,1e-05
4396,4.396,5,2.5e-05
4397,4.397,8,4e-05
4398,4.398,8,4e-05
4399,4.399,8,4e-05
4400,4.4,8,4e-05
4401,4.401,5,2.5e-05
4402,4.402,2,1e-05
4403,4.403,-1,-5e-06
4404,4.404,-5,-2.5e-05
4405,4.405,-9,-4.5e-05
4406,4.406,-13,-6.5e-05
4407,4.407,-15,-7.5e-05
4408,4.408,-16,-8e-05
4409,4.409,-16,-8e-05
4410,4.41,-15,-7.5e-05
4411,4.411,-13,-6.5e-05
4412,4.412,-10,-5e-05
4413,4.413,-7,-3.5e-05
4414,4.414,-4,-2e-05
4415,4.415,-4,-2e-05
4416,4.416,-4,-2e-05
4417,4.417,-4,-2e-05
4418,4.418,-5,-2.5e-05
4419,4.419,-5,-2.5e-05
4420,4.42,-6,-3e-05
4421,4.421,-7,-3.5e-05
4422,4.422,-8,-4e-05
4423,4.423,-8,-4e-05
4424,4.424,-7,-3.5e-05
4425,4.425,-6,-3e-05
4426,4.426,-4,-2e-05
4427,4.427,-2,-1e-05
4428,4.428,0,0.0
4429,4.429,2,1e-05
4430,4.43,3,1.5e-05
4431,4.431,5,2.5e-05
4432,4.432,5,2.5e-05
4433,4.433,6,3e-05
4434,4.434,6,3e-05
4435,4.435,6,3e-05
4436,4.436,7,3.5e-05
4437,4.437,5,2.5e-05
4438,4.438,4,2e-05
4439,4.439,2,1e-05
4440,4.44,2,1e-05
4441,4.441,2,1e-05
4442,4.442,2,1e-05
4443,4.443,2,1e-05
4444,4.444,3,1.5e-05
4445,4.445,3,1.5e-05
4446,4.446,4,2e-05
4447,4.447,4,2e-05
4448,4.448,4,2e-05
4449,4.449,4,2e-05
4450,4.45,4,2e-05
4451,4.451,4,2e-05
4452,4.452,4,2e-05
4453,4.453,5,2.5e-05
4454,4.454,2,1e-05
4455,4.455,-1,-5e-06
4456,4.456,-2,-1e-05
4457,4.457,-3,-1.5e-05
4458,4.458,-3,-1.5e-05
4459,4.459,-3,-1.5e-05
4460,4.46,-3,-1.5e-05
4461,4.461,-3,-1.5e-05
4462,4.462,-3,-1.5e-05
4463,4.463,-3,-1.5e-05
4464,4.464,-2,-1e-05
4465,4.465,-2,-1e-05
4466,4.466,-2,-1e-05
4467,4.467,-3,-1.5e-05
4468,4.468,-4,-2e-05
4469,4.469,-6,-3e-05
4470,4.47,-8,-4e-05
4471,4.471,-10,-5e-05
4472,4.472,-12,-6e-05
4473,4.473,-13,-6.5e-05
4474,4.474,-13,-6.5e-05
4475,4.475,-14,-7e-05
4476,4.476,-14,-7e-05
4477,4.477,-13,-6.5e-05
4478,4.478,-12,-6e-05
4479,4.479,-11,-5.5e-05
4480,4.48,-10,-5e-05
4481,4.481,-9,-4.5e-05
4482,4.482,-7,-3.5e-05
4483,4.483,-5,-2.5e-05
4484,4.484,-3,-1.5e-05
4485,4.485,-2,-1e-05
4486,4.486,0,0.0
4487,4.487,4,2e-05
4488,4.488,8,4e-05
4489,4.489,12,6e-05
4490,4.49,22,0.00011
4491,4.491,33,0.000165
4492,4.492,44,0.00022
4493,4.493,57,0.000285
4494,4.494,69,0.000345
4495,4.495,83,0.000415
4496,4.496,98,0.00049
4497,4.497,112,0.00056
4498,4.498,127,0.000635
4499,4.499,140,0.0007
4500,4.5,154,0.00077
4501,4.501,166,0.00083
4502,4.502,177,0.000885
4503,4.503,189,0.000945
4504,4.504,198,0.00099
4505,4.505,208,0.00104
4506,4.506,216,0.00108
4507,4.507,222,0.00111
4508,4.508,227,0.001135
4509,4.509,231,0.001155
4510,4.51,234,0.00117
4511,4.511,237,0.001185
4512,4.512,235,0.001175
4513,4.513,232,0.00116
4514,4.514,229,0.001145
4515,4.515,215,0.001075
4516,4.516,200,0.001
4517,4.517,184,0.00092
4518,4.518,162,0.00081
4519,4.519,139,0.000695
4520,4.52,117,0.000585
4521,4.521,98,0.00049
4522,4.522,78,0.00039
4523,4.523,67,0.000335
4524,4.524,60,0.0003
4525,4.525,54,0.00027
4526,4.526,51,0.000255
4527,4.527,50,0.00025
4528,4.528,48,0.00024
4529,4.529,44,0.00022
4530,4.53,40,0.0002
4531,4.531,35,0.000175
4532,4.532,25,0.000125
4533,4.533,15,7.5e-05
4534,4.534,5,2.5e-05
4535,4.535,-5,-2.5e-05
4536,4.536,-16,-8e-05
4537,4.537,-22,-0.00011
4538,4.538,-26,-0.00013
4539,4.539,-31,-0.000155
4540,4.54,-33,-0.000165
4541,4.541,-35,-0.000175
4542,4.542,-36,-0.00018
4543,4.543,-37,-0.000185
4544,4.544,-37,-0.000185
4545,4.545,-38,-0.00019
4546,4.546,-40,-0.0002
4547,4.547,-42,-0.00021
4548,4.548,-44,-0.00022
4549,4.549,-46,-0.00023
4550,4.55,-49,-0.000245
4551,4.551,-49,-0.000245
4552,4.552,-49,-0.000245
4553,4.553,-49,-0.000245
4554,4.554,-50,-0.00025
4555,4.555,-50,-0.00025
4556,4.556,-51,-0.000255
4557,4.557,-52,-0.00026
4558,4.558,-54,-0.00027
4559,4.559,-55,-0.000275
4560,4.56,-55,-0.000275
4561,4.561,-56,-0.00028
4562,4.562,-56,-0.00028
4563,4.563,-56,-0.00028
4564,4.564,-56,-0.00028
4565,4.565,-55,-0.000275
4566,4.566,-53,-0.000265
4567,4.567,-52,-0.00026
4568,4.568,-51,-0.000255
4569,4.569,-50,-0.00025
4570,4.57,-49,-0.000245
4571,4.571,-48,-0.00024
4572,4.572,-48,-0.00024
4573,4.573,-47,-0.000235
4574,4.574,-47,-0.000235
4575,4.575,-46,-0.00023
4576,4.576,-45,-0.000225
4577,4.577,-44,-0.00022
4578,4.578,-42,-0.00021
4579,4.579,-41,-0.000205
4580,4.58,-39,-0.000195
4581,4.581,-38,-0.00019
4582,4.582,-38,-0.00019
4583,4.583,-37,-0.000185
4584,4.584,-37,-0.000185
4585,4.585,-36,-0.00018
4586,4.586,-35,-0.000175
4587,4.587,-35,-0.000175
4588,4.588,-35,-0.000175
4589,4.589,-34,-0.00017
4590,4.59,-33,-0.000165
4591,4.591,-32,-0.00016
4592,4.592,-31,-0.000155
4593,4.593,-29,-0.000145
4594,4.594,-27,-0.000135
4595,4.595,-26,-0.00013
4596,4.596,-25,-0.000125
4597,4.597,-24,-0.00012
4598,4.598,-23,-0.000115
4599,4.599,-21,-0.000105
4600,4.6,-20,-0.0001
4601,4.601,-20,-0.0001
4602,4.602,-19,-9.5e-05
4603,4.603,-18,-9e-05
4604,4.604,-18,-9e-05
4605,4.605,-18,-9e-05
4606,4.606,-18,-9e-05
4607,4.607,-19,-9.5e-05
4608,4.608,-20,-0.0001
4609,4.609,-20,-0.0001
4610,4.61,-19,-9.5e-05
4611,4.611,-18,-9e-05
4612,4.612,-17,-8.5e-05
4613,4.613,-16,-8e-05
4614,4.614,-15,-7.5e-05
4615,4.615,-15,-7.5e-05
4616,4.616,-15,-7.5e-05
4617,4.617,-15,-7.5e-05
4618,4.618,-15,-7.5e-05
4619,4.619,-14,-7e-05
4620,4.62,-15,-7.5e-05
4621,4.621,-16,-8e-05
4622,4.622,-17,-8.5e-05
4623,4.623,-18,-9e-05
4624,4.624,-18,-9e-05
4625,4.625,-19,-9.5e-05
4626,4.626,-19,-9.5e-05
4627,4.627,-18,-9e-05
4628,4.628,-17,-8.5e-05
4629,4.629,-16,-8e-05
4630,4.63,-15,-7.5e-05
4631,4.631,-14,-7e-05
4632,4.632,-14,-7e-05
4633,4.633,-13,-6.5e-05
4634,4.634,-14,-7e-05
4635,4.635,-15,-7.5e-05
4636,4.636,-17,-8.5e-05
4637,4.637,-19,-9.5e-05
4638,4.638,-21,-0.000105
4639,4.639,-23,-0.000115
4640,4.64,-23,-0.000115
4641,4.641,-23,-0.000115
4642,4.642,-22,-0.00011
4643,4.643,-21,-0.000105
4644,4.644,-21,-0.000105
4645,4.645,-20,-0.0001
4646,4.646,-20,-0.0001
4647,4.647,-19,-9.5e-05
4648,4.648,-20,-0.0001
4649,4.649,-21,-0.000105
4650,4.65,-22,-0.00011
4651,4.651,-23,-0.000115
4652,4.652,-24,-0.00012
4653,4.653,-25,-0.000125
4654,4.654,-27,-0.000135
4655,4.655,-28,-0.00014
4656,4.656,-29,-0.000145
4657,4.657,-30,-0.00015
4658,4.658,-31,-0.000155
4659,4.659,-31,-0.000155
4660,4.66,-29,-0.000145
4661,4.661,-28,-0.00014
4662,4.662,-27,-0.000135
4663,4.663,-27,-0.000135
4664,4.664,-26,-0.00013
4665,4.665,-26,-0.00013
4666,4.666,-26,-0.00013
4667,4.667,-25,-0.000125
4668,4.668,-27,-0.000135
4669,4.669,-28,-0.00014
4670,4.67,-29,-0.000145
4671,4.671,-30,-0.00015
4672,4.672,-31,-0.000155
4673,4.673,-31,-0.000155
4674,4.674,-30,-0.00015
4675,4.675,-29,-0.000145
4676,4.676,-29,-0.000145
4677,4.677,-28,-0.00014
4678,4.678,-27,-0.000135
4679,4.679,-26,-0.00013
4680,4.68,-25,-0.000125
4681,4.681,-24,-0.00012
4682,4.682,-24,-0.00012
4683,4.683,-23,-0.000115
4684,4.684,-23,-0.000115
4685,4.685,-24,-0.00012
4686,4.686,-24,-0.00012
4687,4.687,-25,-0.000125
4688,4.688,-26,-0.00013
4689,4.689,-26,-0.00013
4690,4.69,-27,-0.000135
4691,4.691,-27,-0.000135
4692,4.692,-27,-0.000135
4693,4.693,-27,-0.000135
4694,4.694,-26,-0.00013
4695,4.695,-26,-0.00013
4696,4.696,-25,-0.000125
4697,4.697,-24,-0.00012
4698,4.698,-23,-0.000115
4699,4.699,-23,-0.000115
4700,4.7,-22,-0.00011
4701,4.701,-23,-0.000115
4702,4.702,-24,-0.00012
4703,4.703,-24,-0.00012
4704,4.704,-25,-0.000125
4705,4.705,-25,-0.000125
4706,4.706,-26,-0.00013
4707,4.707,-27,-0.000135
4708,4.708,-28,-0.00014
4709,4.709,-28,-0.00014
4710,4.71,-26,-0.00013
4711,4.711,-25,-0.000125
4712,4.712,-23,-0.000115
4713,4.713,-22,-0.00011
4714,4.714,-21,-0.000105
4715,4.715,-20,-0.0001
4716,4.716,-19,-9.5e-05
4717,4.717,-18,-9e-05
4718,4.718,-17,-8.5e-05
4719,4.719,-16,-8e-05
4720,4.72,-15,-7.5e-05
4721,4.721,-15,-7.5e-05
4722,4.722,-15,-7.5e-05
4723,4.723,-16,-8e-05
4724,4.724,-18,-9e-05
4725,4.725,-19,-9.5e-05
4726,4.726,-18,-9e-05
4727,4.727,-16,-8e-05
4728,4.728,-14,-7e-05
4729,4.729,-14,-7e-05
4730,4.73,-14,-7e-05
4731,4.731,-13,-6.5e-05
4732,4.732,-13,-6.5e-05
4733,4.733,-12,-6e-05
4734,4.734,-12,-6e-05
4735,4.735,-11,-5.5e-05
4736,4.736,-10,-5e-05
4737,4.737,-9,-4.5e-05
4738,4.738,-9,-4.5e-05
4739,4.739,-9,-4.5e-05
4740,4.74,-8,-4e-05
4741,4.741,-6,-3e-05
4742,4.742,-4,-2e-05
4743,4.743,-1,-5e-06
4744,4.744,1,5e-06
4745,4.745,3,1.5e-05
4746,4.746,4,2e-05
4747,4.747,5,2.5e-05
4748,4.748,6,3e-05
4749,4.749,6,3e-05
4750,4.75,6,3e-05
4751,4.751,5,2.5e-05
4752,4.752,4,2e-05
4753,4.753,3,1.5e-05
4754,4.754,3,1.5e-05
4755,4.755,3,1.5e-05
4756,4.756,4,2e-05
4757,4.757,3,1.5e-05
4758,4.758,3,1.5e-05
4759,4.759,3,1.5e-05
4760,4.76,4,2e-05
4761,4.761,5,2.5e-05
4762,4.762,5,2.5e-05
4763,4.763,5,2.5e-05
4764,4.764,5,2.5e-05
4765,4.765,4,2e-05
4766,4.766,3,1.5e-05
4767,4.767,2,1e-05
4768,4.768,1,5e-06
4769,4.769,0,0.0
4770,4.77,-2,-1e-05
4771,4.771,-3,-1.5e-05
4772,4.772,-5,-2.5e-05
4773,4.773,-6,-3e-05
4774,4.774,-8,-4e-05
4775,4.775,-10,-5e-05
4776,4.776,-10,-5e-05
4777,4.777,-10,-5e-05
4778,4.778,-9,-4.5e-05
4779,4.779,-11,-5.5e-05
4780,4.78,-13,-6.5e-05
4781,4.781,-15,-7.5e-05
4782,4.782,-16,-8e-05
4783,4.783,-17,-8.5e-05
4784,4.784,-18,-9e-05
4785,4.785,-20,-0.0001
4786,4.786,-22,-0.00011
4787,4.787,-23,-0.000115
4788,4.788,-24,-0.00012
4789,4.789,-24,-0.00012
4790,4.79,-25,-0.000125
4791,4.791,-26,-0.00013
4792,4.792,-27,-0.000135
4793,4.793,-27,-0.000135
4794,4.794,-26,-0.00013
4795,4.795,-26,-0.00013
4796,4.796,-26,-0.00013
4797,4.797,-25,-0.000125
4798,4.798,-26,-0.00013
4799,4.799,-26,-0.00013
4800,4.8,-27,-0.000135
4801,4.801,-28,-0.00014
4802,4.802,-29,-0.000145
4803,4.803,-29,-0.000145
4804,4.804,-30,-0.00015
4805,4.805,-32,-0.00016
4806,4.806,-32,-0.00016
4807,4.807,-32,-0.00016
4808,4.808,-31,-0.000155
4809,4.809,-31,-0.000155
4810,4.81,-31,-0.000155
4811,4.811,-30,-0.00015
4812,4.812,-30,-0.00015
4813,4.813,-30,-0.00015
4814,4.814,-30,-0.00015
4815,4.815,-30,-0.00015
4816,4.816,-30,-0.00015
4817,4.817,-29,-0.000145
4818,4.818,-30,-0.00015
4819,4.819,-30,-0.00015
4820,4.82,-30,-0.00015
4821,4.821,-30,-0.00015
4822,4.822,-29,-0.000145
4823,4.823,-30,-0.00015
4824,4.824,-31,-0.000155
4825,4.825,-32,-0.00016
4826,4.826,-32,-0.00016
4827,4.827,-32,-0.00016
4828,4.828,-31,-0.000155
4829,4.829,-31,-0.000155
4830,4.83,-31,-0.000155
4831,4.831,-30,-0.00015
4832,4.832,-30,-0.00015
4833,4.833,-30,-0.00015
4834,4.834,-31,-0.000155
4835,4.835,-31,-0.000155
4836,4.836,-32,-0.00016
4837,4.837,-33,-0.000165
4838,4.838,-34,-0.00017
4839,4.839,-35,-0.000175
4840,4.84,-35,-0.000175
4841,4.841,-35,-0.000175
4842,4.842,-34,-0.00017
4843,4.843,-33,-0.000165
4844,4.844,-32,-0.00016
4845,4.845,-32,-0.00016
4846,4.846,-33,-0.000165
4847,4.847,-34,-0.00017
4848,4.848,-34,-0.00017
4849,4.849,-35,-0.000175
4850,4.85,-35,-0.000175
4851,4.851,-36,-0.00018
4852,4.852,-37,-0.000185
4853,4.853,-38,-0.00019
4854,4.854,-38,-0.00019
4855,4.855,-38,-0.00019
4856,4.856,-38,-0.00019
4857,4.857,-36,-0.00018
4858,4.858,-35,-0.000175
4859,4.859,-34,-0.00017
4860,4.86,-33,-0.000165
4861,4.861,-32,-0.00016
4862,4.862,-31,-0.000155
4863,4.863,-30,-0.00015
4864,4.864,-29,-0.000145
4865,4.865,-30,-0.00015
4866,4.866,-31,-0.000155
4867,4.867,-32,-0.00016
4868,4.868,-33,-0.000165
4869,4.869,-34,-0.00017
4870,4.87,-34,-0.00017
4871,4.871,-35,-0.000175
4872,4.872,-35,-0.000175
4873,4.873,-35,-0.000175
4874,4.874,-36,-0.00018
4875,4.875,-36,-0.00018
4876,4.876,-36,-0.00018
4877,4.877,-36,-0.00018
4878,4.878,-35,-0.000175
4879,4.879,-35,-0.000175
4880,4.88,-35,-0.000175
4881,4.881,-35,-0.000175
4882,4.882,-35,-0.000175
4883,4.883,-35,-0.000175
4884,4.884,-36,-0.00018
4885,4.885,-36,-0.00018
4886,4.886,-37,-0.000185
4887,4.887,-38,-0.00019
4888,4.888,-38,-0.00019
4889,4.889,-38,-0.00019
4890,4.89,-39,-0.000195
4891,4.891,-40,-0.0002
4892,4.892,-40,-0.0002
4893,4.893,-40,-0.0002
4894,4.894,-40,-0.0002
4895,4.895,-40,-0.0002
4896,4.896,-41,-0.000205
4897,4.897,-41,-0.000205
4898,4.898,-41,-0.000205
4899,4.899,-42,-0.00021
4900,4.9,-42,-0.00021
4901,4.901,-43,-0.000215
4902,4.902,-44,-0.00022
4903,4.903,-44,-0.00022
4904,4.904,-44,-0.00022
4905,4.905,-44,-0.00022
4906,4.906,-43,-0.000215
4907,4.907,-44,-0.00022
4908,4.908,-45,-0.000225
4909,4.909,-45,-0.000225
4910,4.91,-43,-0.000215
4911,4.911,-42,-0.00021
4912,4.912,-42,-0.00021
4913,4.913,-42,-0.00021
4914,4.914,-42,-0.00021
4915,4.915,-44,-0.00022
4916,4.916,-46,-0.00023
4917,4.917,-48,-0.00024
4918,4.918,-52,-0.00026
4919,4.919,-55,-0.000275
4920,4.92,-58,-0.00029
4921,4.921,-61,-0.000305
4922,4.922,-63,-0.000315
4923,4.923,-65,-0.000325
4924,4.924,-67,-0.000335
4925,4.925,-69,-0.000345
4926,4.926,-70,-0.00035
4927,4.927,-71,-0.000355
4928,4.928,-71,-0.000355
4929,4.929,-72,-0.00036
4930,4.93,-74,-0.00037
4931,4.931,-75,-0.000375
4932,4.932,-78,-0.00039
4933,4.933,-81,-0.000405
4934,4.934,-84,-0.00042
4935,4.935,-87,-0.000435
4936,4.936,-90,-0.00045
4937,4.937,-92,-0.00046
4938,4.938,-95,-0.000475
4939,4.939,-98,-0.00049
4940,4.94,-100,-0.0005
4941,4.941,-101,-0.000505
4942,4.942,-103,-0.000515
4943,4.943,-104,-0.00052
4944,4.944,-106,-0.00053
4945,4.945,-107,-0.000535
4946,4.946,-106,-0.00053
4947,4.947,-105,-0.000525
4948,4.948,-105,-0.000525
4949,4.949,-105,-0.000525
4950,4.95,-106,-0.00053
4951,4.951,-107,-0.000535
4952,4.952,-109,-0.000545
4953,4.953,-110,-0.00055
4954,4.954,-111,-0.000555
4955,4.955,-113,-0.000565
4956,4.956,-113,-0.000565
4957,4.957,-114,-0.00057
4958,4.958,-114,-0.00057
4959,4.959,-114,-0.00057
4960,4.96,-113,-0.000565
4961,4.961,-112,-0.00056
4962,4.962,-111,-0.000555
4963,4.963,-111,-0.000555
4964,4.964,-111,-0.000555
4965,4.965,-111,-0.000555
