sample_index,time_s,code_signed,voltage_V
0,0.0,72,0.00036
1,0.001,73,0.000365
2,0.002,74,0.00037
3,0.003,75,0.000375
4,0.004,76,0.00038
5,0.005,77,0.000385
6,0.006,78,0.00039
7,0.007,79,0.000395
8,0.008,80,0.0004
9,0.009,82,0.00041
10,0.01,83,0.000415
11,0.011,84,0.00042
12,0.012,86,0.00043
13,0.013,87,0.000435
14,0.014,88,0.00044
15,0.015,89,0.000445
16,0.016,90,0.00045
17,0.017,91,0.000455
18,0.018,92,0.00046
19,0.019,93,0.000465
20,0.02,94,0.00047
21,0.021,94,0.00047
22,0.022,95,0.000475
23,0.023,96,0.00048
24,0.024,97,0.000485
25,0.025,97,0.000485
26,0.026,98,0.00049
27,0.027,99,0.000495
28,0.028,100,0.0005
29,0.029,100,0.0005
30,0.03,101,0.000505
31,0.031,102,0.00051
32,0.032,103,0.000515
33,0.033,104,0.00052
34,0.034,105,0.000525
35,0.035,106,0.00053
36,0.036,107,0.000535
37,0.037,108,0.00054
38,0.038,109,0.000545
39,0.039,110,0.00055
40,0.04,110,0.00055
41,0.041,110,0.00055
42,0.042,109,0.000545
43,0.043,109,0.000545
44,0.044,109,0.000545
45,0.045,109,0.000545
46,0.046,108,0.00054
47,0.047,108,0.00054
48,0.048,108,0.00054
49,0.049,108,0.00054
50,0.05,107,0.000535
51,0.051,107,0.000535
52,0.052,107,0.000535
53,0.053,107,0.000535
54,0.054,106,0.00053
55,0.055,106,0.00053
56,0.056,105,0.000525
57,0.057,103,0.000515
58,0.058,102,0.00051
59,0.059,101,0.000505
60,0.06,99,0.000495
61,0.061,98,0.00049
62,0.062,97,0.000485
63,0.063,95,0.000475
64,0.064,94,0.00047
65,0.065,92,0.00046
66,0.066,91,0.000455
67,0.067,89,0.000445
68,0.068,88,0.00044
69,0.069,86,0.00043
70,0.07,85,0.000425
71,0.071,83,0.000415
72,0.072,82,0.00041
73,0.073,80,0.0004
74,0.074,79,0.000395
75,0.075,77,0.000385
76,0.076,75,0.000375
77,0.077,74,0.00037
78,0.078,72,0.00036
79,0.079,70,0.00035
80,0.08,68,0.00034
81,0.081,66,0.00033
82,0.082,63,0.000315
83,0.083,61,0.000305
84,0.084,59,0.000295
85,0.085,56,0.00028
86,0.086,54,0.00027
87,0.087,52,0.00026
88,0.088,50,0.00025
89,0.089,48,0.00024
90,0.09,46,0.00023
91,0.091,44,0.00022
92,0.092,42,0.00021
93,0.093,40,0.0002
94,0.094,38,0.00019
95,0.095,37,0.000185
96,0.096,36,0.00018
97,0.097,35,0.000175
98,0.098,34,0.00017
99,0.099,33,0.000165
100,0.1,32,0.00016
101,0.101,31,0.000155
102,0.102,29,0.000145
103,0.103,28,0.00014
104,0.104,26,0.00013
105,0.105,24,0.00012
106,0.106,22,0.00011
107,0.107,20,0.0001
108,0.108,19,9.5e-05
109,0.109,17,8.5e-05
110,0.11,16,8e-05
111,0.111,15,7.5e-05
112,0.112,15,7.5e-05
113,0.113,14,7e-05
114,0.114,14,7e-05
115,0.115,13,6.5e-05
116,0.116,13,6.5e-05
117,0.117,12,6e-05
118,0.118,12,6e-05
119,0.119,11,5.5e-05
120,0.12,10,5e-05
121,0.121,9,4.5e-05
122,0.122,8,4e-05
123,0.123,8,4e-05
124,0.124,7,3.5e-05
125,0.125,6,3e-05
126,0.126,6,3e-05
127,0.127,6,3e-05
128,0.128,6,3e-05
129,0.129,6,3e-05
130,0.13,6,3e-05
131,0.131,6,3e-05
132,0.132,6,3e-05
133,0.133,6,3e-05
134,0.134,6,3e-05
135,0.135,6,3e-05
136,0.136,5,2.5e-05
137,0.137,5,2.5e-05
138,0.138,5,2.5e-05
139,0.139,5,2.5e-05
140,0.14,4,2e-05
141,0.141,4,2e-05
142,0.142,4,2e-05
143,0.143,4,2e-05
144,0.144,3,1.5e-05
145,0.145,3,1.5e-05
146,0.146,3,1.5e-05
147,0.147,3,1.5e-05
148,0.148,2,1e-05
149,0.149,2,1e-05
150,0.15,1,5e-06
151,0.151,1,5e-06
152,0.152,0,0.0
153,0.153,0,0.0
154,0.154,-1,-5e-06
155,0.155,-1,-5e-06
156,0.156,-2,-1e-05
157,0.157,-1,-5e-06
158,0.158,-1,-5e-06
159,0.159,0,0.0
160,0.16,0,0.0
161,0.161,1,5e-06
162,0.162,1,5e-06
163,0.163,2,1e-05
164,0.164,2,1e-05
165,0.165,1,5e-06
166,0.166,1,5e-06
167,0.167,0,0.0
168,0.168,-1,-5e-06
169,0.169,-2,-1e-05
170,0.17,-2,-1e-05
171,0.171,-3,-1.5e-05
172,0.172,-4,-2e-05
173,0.173,-3,-1.5e-05
174,0.174,-3,-1.5e-05
175,0.175,-2,-1e-05
176,0.176,-2,-1e-05
177,0.177,-1,-5e-06
178,0.178,-1,-5e-06
179,0.179,0,0.0
180,0.18,0,0.0
181,0.181,0,0.0
182,0.182,0,0.0
183,0.183,0,0.0
184,0.184,0,0.0
185,0.185,0,0.0
186,0.186,0,0.0
187,0.187,0,0.0
188,0.188,0,0.0
189,0.189,0,0.0
190,0.19,0,0.0
191,0.191,0,0.0
192,0.192,0,0.0
193,0.193,0,0.0
194,0.194,0,0.0
195,0.195,0,0.0
196,0.196,1,5e-06
197,0.197,1,5e-06
198,0.198,2,1e-05
199,0.199,2,1e-05
200,0.2,3,1.5e-05
201,0.201,3,1.5e-05
202,0.202,4,2e-05
203,0.203,4,2e-05
204,0.204,4,2e-05
205,0.205,3,1.5e-05
206,0.206,3,1.5e-05
207,0.207,2,1e-05
208,0.208,2,1e-05
209,0.209,1,5e-06
210,0.21,1,5e-06
211,0.211,0,0.0
212,0.212,0,0.0
213,0.213,0,0.0
214,0.214,-1,-5e-06
215,0.215,-1,-5e-06
216,0.216,-1,-5e-06
217,0.217,-1,-5e-06
218,0.218,-2,-1e-05
219,0.219,-2,-1e-05
220,0.22,-2,-1e-05
221,0.221,-1,-5e-06
222,0.222,-1,-5e-06
223,0.223,-1,-5e-06
224,0.224,0,0.0
225,0.225,0,0.0
226,0.226,0,0.0
227,0.227,0,0.0
228,0.228,0,0.0
229,0.229,0,0.0
230,0.23,-1,-5e-06
231,0.231,-1,-5e-06
232,0.232,-1,-5e-06
233,0.233,-1,-5e-06
234,0.234,-2,-1e-05
235,0.235,-2,-1e-05
236,0.236,-2,-1e-05
237,0.237,-2,-1e-05
238,0.238,-2,-1e-05
239,0.239,-2,-1e-05
240,0.24,-2,-1e-05
241,0.241,-2,-1e-05
242,0.242,-2,-1e-05
243,0.243,-2,-1e-05
244,0.244,-2,-1e-05
245,0.245,-2,-1e-05
246,0.246,-2,-1e-05
247,0.247,-2,-1e-05
248,0.248,-2,-1e-05
249,0.249,-2,-1e-05
250,0.25,-2,-1e-05
251,0.251,-2,-1e-05
252,0.252,-2,-1e-05
253,0.253,-2,-1e-05
254,0.254,-2,-1e-05
255,0.255,-2,-1e-05
256,0.256,-2,-1e-05
257,0.257,-2,-1e-05
258,0.258,-2,-1e-05
259,0.259,-2,-1e-05
260,0.26,-1,-5e-06
261,0.261,-1,-5e-06
262,0.262,-1,-5e-06
263,0.263,0,0.0
264,0.264,0,0.0
265,0.265,0,0.0
266,0.266,0,0.0
267,0.267,-1,-5e-06
268,0.268,-1,-5e-06
269,0.269,-2,-1e-05
270,0.27,-2,-1e-05
271,0.271,-3,-1.5e-05
272,0.272,-3,-1.5e-05
273,0.273,-4,-2e-05
274,0.274,-4,-2e-05
275,0.275,-4,-2e-05
276,0.276,-4,-2e-05
277,0.277,-4,-2e-05
278,0.278,-4,-2e-05
279,0.279,-4,-2e-05
280,0.28,-4,-2e-05
281,0.281,-4,-2e-05
282,0.282,-4,-2e-05
283,0.283,-3,-1.5e-05
284,0.284,-3,-1.5e-05
285,0.285,-3,-1.5e-05
286,0.286,-3,-1.5e-05
287,0.287,-2,-1e-05
288,0.288,-2,-1e-05
289,0.289,-2,-1e-05
290,0.29,-2,-1e-05
291,0.291,-3,-1.5e-05
292,0.292,-3,-1.5e-05
293,0.293,-4,-2e-05
294,0.294,-4,-2e-05
295,0.295,-5,-2.5e-05
296,0.296,-5,-2.5e-05
297,0.297,-6,-3e-05
298,0.298,-6,-3e-05
299,0.299,-5,-2.5e-05
300,0.3,-5,-2.5e-05
301,0.301,-5,-2.5e-05
302,0.302,-5,-2.5e-05
303,0.303,-4,-2e-05
304,0.304,-4,-2e-05
305,0.305,-4,-2e-05
306,0.306,-3,-1.5e-05
307,0.307,-3,-1.5e-05
308,0.308,-2,-1e-05
309,0.309,-2,-1e-05
310,0.31,-1,-5e-06
311,0.311,-1,-5e-06
312,0.312,0,0.0
313,0.313,0,0.0
314,0.314,1,5e-06
315,0.315,1,5e-06
316,0.316,1,5e-06
317,0.317,1,5e-06
318,0.318,2,1e-05
319,0.319,2,1e-05
320,0.32,2,1e-05
321,0.321,3,1.5e-05
322,0.322,5,2.5e-05
323,0.323,7,3.5e-05
324,0.324,9,4.5e-05
325,0.325,11,5.5e-05
326,0.326,12,6e-05
327,0.327,14,7e-05
328,0.328,16,8e-05
329,0.329,17,8.5e-05
330,0.33,18,9e-05
331,0.331,18,9e-05
332,0.332,19,9.5e-05
333,0.333,20,0.0001
334,0.334,21,0.000105
335,0.335,21,0.000105
336,0.336,22,0.00011
337,0.337,21,0.000105
338,0.338,19,9.5e-05
339,0.339,18,9e-05
340,0.34,16,8e-05
341,0.341,14,7e-05
342,0.342,13,6.5e-05
343,0.343,11,5.5e-05
344,0.344,10,5e-05
345,0.345,9,4.5e-05
346,0.346,8,4e-05
347,0.347,8,4e-05
348,0.348,7,3.5e-05
349,0.349,6,3e-05
350,0.35,5,2.5e-05
351,0.351,5,2.5e-05
352,0.352,4,2e-05
353,0.353,3,1.5e-05
354,0.354,2,1e-05
355,0.355,1,5e-06
356,0.356,0,0.0
357,0.357,-1,-5e-06
358,0.358,-2,-1e-05
359,0.359,-3,-1.5e-05
360,0.36,-4,-2e-05
361,0.361,-4,-2e-05
362,0.362,-4,-2e-05
363,0.363,-5,-2.5e-05
364,0.364,-5,-2.5e-05
365,0.365,-5,-2.5e-05
366,0.366,-6,-3e-05
367,0.367,-6,-3e-05
368,0.368,-6,-3e-05
369,0.369,-7,-3.5e-05
370,0.37,-7,-3.5e-05
371,0.371,-8,-4e-05
372,0.372,-8,-4e-05
373,0.373,-9,-4.5e-05
374,0.374,-9,-4.5e-05
375,0.375,-10,-5e-05
376,0.376,-10,-5e-05
377,0.377,-10,-5e-05
378,0.378,-11,-5.5e-05
379,0.379,-11,-5.5e-05
380,0.38,-11,-5.5e-05
381,0.381,-11,-5.5e-05
382,0.382,-12,-6e-05
383,0.383,-12,-6e-05
384,0.384,-12,-6e-05
385,0.385,-12,-6e-05
386,0.386,-12,-6e-05
387,0.387,-12,-6e-05
388,0.388,-12,-6e-05
389,0.389,-12,-6e-05
390,0.39,-12,-6e-05
391,0.391,-12,-6e-05
392,0.392,-12,-6e-05
393,0.393,-12,-6e-05
394,0.394,-13,-6.5e-05
395,0.395,-13,-6.5e-05
396,0.396,-13,-6.5e-05
397,0.397,-13,-6.5e-05
398,0.398,-14,-7e-05
399,0.399,-14,-7e-05
400,0.4,-14,-7e-05
401,0.401,-14,-7e-05
402,0.402,-15,-7.5e-05
403,0.403,-15,-7.5e-05
404,0.404,-15,-7.5e-05
405,0.405,-15,-7.5e-05
406,0.406,-16,-8e-05
407,0.407,-16,-8e-05
408,0.408,-15,-7.5e-05
409,0.409,-15,-7.5e-05
410,0.41,-15,-7.5e-05
411,0.411,-15,-7.5e-05
412,0.412,-14,-7e-05
413,0.413,-14,-7e-05
414,0.414,-14,-7e-05
415,0.415,-14,-7e-05
416,0.416,-14,-7e-05
417,0.417,-15,-7.5e-05
418,0.418,-15,-7.5e-05
419,0.419,-15,-7.5e-05
420,0.42,-15,-7.5e-05
421,0.421,-16,-8e-05
422,0.422,-16,-8e-05
423,0.423,-15,-7.5e-05
424,0.424,-15,-7.5e-05
425,0.425,-14,-7e-05
426,0.426,-14,-7e-05
427,0.427,-13,-6.5e-05
428,0.428,-13,-6.5e-05
429,0.429,-12,-6e-05
430,0.43,-12,-6e-05
431,0.431,-12,-6e-05
432,0.432,-12,-6e-05
433,0.433,-13,-6.5e-05
434,0.434,-13,-6.5e-05
435,0.435,-13,-6.5e-05
436,0.436,-13,-6.5e-05
437,0.437,-14,-7e-05
438,0.438,-14,-7e-05
439,0.439,-13,-6.5e-05
440,0.44,-13,-6.5e-05
441,0.441,-13,-6.5e-05
442,0.442,-13,-6.5e-05
443,0.443,-12,-6e-05
444,0.444,-12,-6e-05
445,0.445,-12,-6e-05
446,0.446,-11,-5.5e-05
447,0.447,-11,-5.5e-05
448,0.448,-10,-5e-05
449,0.449,-10,-5e-05
450,0.45,-9,-4.5e-05
451,0.451,-9,-4.5e-05
452,0.452,-8,-4e-05
453,0.453,-8,-4e-05
454,0.454,-8,-4e-05
455,0.455,-8,-4e-05
456,0.456,-8,-4e-05
457,0.457,-8,-4e-05
458,0.458,-8,-4e-05
459,0.459,-8,-4e-05
460,0.46,-8,-4e-05
461,0.461,-8,-4e-05
462,0.462,-7,-3.5e-05
463,0.463,-7,-3.5e-05
464,0.464,-6,-3e-05
465,0.465,-6,-3e-05
466,0.466,-5,-2.5e-05
467,0.467,-5,-2.5e-05
468,0.468,-4,-2e-05
469,0.469,-4,-2e-05
470,0.47,-7,-3.5e-05
471,0.471,-10,-5e-05
472,0.472,-13,-6.5e-05
473,0.473,-16,-8e-05
474,0.474,-18,-9e-05
475,0.475,-21,-0.000105
476,0.476,-24,-0.00012
477,0.477,-28,-0.00014
478,0.478,-32,-0.00016
479,0.479,-37,-0.000185
480,0.48,-41,-0.000205
481,0.481,-46,-0.00023
482,0.482,-51,-0.000255
483,0.483,-55,-0.000275
484,0.484,-60,-0.0003
485,0.485,-58,-0.00029
486,0.486,-51,-0.000255
487,0.487,-43,-0.000215
488,0.488,-36,-0.00018
489,0.489,-29,-0.000145
490,0.49,-22,-0.00011
491,0.491,-15,-7.5e-05
492,0.492,-8,-4e-05
493,0.493,9,4.5e-05
494,0.494,28,0.00014
495,0.495,47,0.000235
496,0.496,66,0.00033
497,0.497,85,0.000425
498,0.498,105,0.000525
499,0.499,124,0.00062
500,0.5,143,0.000715
501,0.501,172,0.00086
502,0.502,202,0.00101
503,0.503,232,0.00116
504,0.504,261,0.001305
505,0.505,291,0.001455
506,0.506,321,0.001605
507,0.507,350,0.00175
508,0.508,375,0.001875
509,0.509,364,0.00182
510,0.51,354,0.00177
511,0.511,343,0.001715
512,0.512,333,0.001665
513,0.513,322,0.00161
514,0.514,312,0.00156
515,0.515,301,0.001505
516,0.516,282,0.00141
517,0.517,245,0.001225
518,0.518,208,0.00104
519,0.519,170,0.00085
520,0.52,133,0.000665
521,0.521,95,0.000475
522,0.522,58,0.00029
523,0.523,21,0.000105
524,0.524,-4,-2e-05
525,0.525,-17,-8.5e-05
526,0.526,-29,-0.000145
527,0.527,-42,-0.00021
528,0.528,-54,-0.00027
529,0.529,-67,-0.000335
530,0.53,-79,-0.000395
531,0.531,-92,-0.00046
532,0.532,-93,-0.000465
533,0.533,-89,-0.000445
534,0.534,-85,-0.000425
535,0.535,-82,-0.00041
536,0.536,-78,-0.00039
537,0.537,-74,-0.00037
538,0.538,-70,-0.00035
539,0.539,-66,-0.00033
540,0.54,-62,-0.00031
541,0.541,-57,-0.000285
542,0.542,-52,-0.00026
543,0.543,-47,-0.000235
544,0.544,-42,-0.00021
545,0.545,-37,-0.000185
546,0.546,-32,-0.00016
547,0.547,-28,-0.00014
548,0.548,-25,-0.000125
549,0.549,-21,-0.000105
550,0.55,-18,-9e-05
551,0.551,-15,-7.5e-05
552,0.552,-12,-6e-05
553,0.553,-9,-4.5e-05
554,0.554,-6,-3e-05
555,0.555,-4,-2e-05
556,0.556,-4,-2e-05
557,0.557,-4,-2e-05
558,0.558,-5,-2.5e-05
559,0.559,-5,-2.5e-05
560,0.56,-5,-2.5e-05
561,0.561,-5,-2.5e-05
562,0.562,-6,-3e-05
563,0.563,-6,-3e-05
564,0.564,-7,-3.5e-05
565,0.565,-7,-3.5e-05
566,0.566,-8,-4e-05
567,0.567,-8,-4e-05
568,0.568,-9,-4.5e-05
569,0.569,-9,-4.5e-05
570,0.57,-10,-5e-05
571,0.571,-10,-5e-05
572,0.572,-9,-4.5e-05
573,0.573,-9,-4.5e-05
574,0.574,-9,-4.5e-05
575,0.575,-9,-4.5e-05
576,0.576,-8,-4e-05
577,0.577,-8,-4e-05
578,0.578,-8,-4e-05
579,0.579,-8,-4e-05
580,0.58,-8,-4e-05
581,0.581,-9,-4.5e-05
582,0.582,-9,-4.5e-05
583,0.583,-9,-4.5e-05
584,0.584,-9,-4.5e-05
585,0.585,-10,-5e-05
586,0.586,-10,-5e-05
587,0.587,-10,-5e-05
588,0.588,-9,-4.5e-05
589,0.589,-9,-4.5e-05
590,0.59,-9,-4.5e-05
591,0.591,-9,-4.5e-05
592,0.592,-8,-4e-05
593,0.593,-8,-4e-05
594,0.594,-8,-4e-05
595,0.595,-8,-4e-05
596,0.596,-8,-4e-05
597,0.597,-9,-4.5e-05
598,0.598,-9,-4.5e-05
599,0.599,-9,-4.5e-05
600,0.6,-9,-4.5e-05
601,0.601,-10,-5e-05
602,0.602,-10,-5e-05
603,0.603,-9,-4.5e-05
604,0.604,-9,-4.5e-05
605,0.605,-8,-4e-05
606,0.606,-8,-4e-05
607,0.607,-7,-3.5e-05
608,0.608,-7,-3.5e-05
609,0.609,-6,-3e-05
610,0.61,-6,-3e-05
611,0.611,-5,-2.5e-05
612,0.612,-5,-2.5e-05
613,0.613,-5,-2.5e-05
614,0.614,-5,-2.5e-05
615,0.615,-4,-2e-05
616,0.616,-4,-2e-05
617,0.617,-4,-2e-05
618,0.618,-4,-2e-05
619,0.619,-4,-2e-05
620,0.62,-4,-2e-05
621,0.621,-4,-2e-05
622,0.622,-4,-2e-05
623,0.623,-4,-2e-05
624,0.624,-4,-2e-05
625,0.625,-4,-2e-05
626,0.626,-3,-1.5e-05
627,0.627,-3,-1.5e-05
628,0.628,-2,-1e-05
629,0.629,-2,-1e-05
630,0.63,-1,-5e-06
631,0.631,-1,-5e-06
632,0.632,0,0.0
633,0.633,0,0.0
634,0.634,0,0.0
635,0.635,0,0.0
636,0.636,0,0.0
637,0.637,0,0.0
638,0.638,0,0.0
639,0.639,0,0.0
640,0.64,0,0.0
641,0.641,0,0.0
642,0.642,0,0.0
643,0.643,0,0.0
644,0.644,0,0.0
645,0.645,0,0.0
646,0.646,0,0.0
647,0.647,0,0.0
648,0.648,0,0.0
649,0.649,0,0.0
650,0.65,1,5e-06
651,0.651,1,5e-06
652,0.652,1,5e-06
653,0.653,1,5e-06
654,0.654,2,1e-05
655,0.655,2,1e-05
656,0.656,2,1e-05
657,0.657,2,1e-05
658,0.658,2,1e-05
659,0.659,1,5e-06
660,0.66,1,5e-06
661,0.661,1,5e-06
662,0.662,1,5e-06
663,0.663,0,0.0
664,0.664,0,0.0
665,0.665,1,5e-06
666,0.666,2,1e-05
667,0.667,3,1.5e-05
668,0.668,4,2e-05
669,0.669,5,2.5e-05
670,0.67,6,3e-05
671,0.671,7,3.5e-05
672,0.672,8,4e-05
673,0.673,8,4e-05
674,0.674,9,4.5e-05
675,0.675,9,4.5e-05
676,0.676,9,4.5e-05
677,0.677,9,4.5e-05
678,0.678,10,5e-05
679,0.679,10,5e-05
680,0.68,10,5e-05
681,0.681,11,5.5e-05
682,0.682,11,5.5e-05
683,0.683,12,6e-05
684,0.684,12,6e-05
685,0.685,13,6.5e-05
686,0.686,13,6.5e-05
687,0.687,14,7e-05
688,0.688,15,7.5e-05
689,0.689,15,7.5e-05
690,0.69,16,8e-05
691,0.691,17,8.5e-05
692,0.692,18,9e-05
693,0.693,18,9e-05
694,0.694,19,9.5e-05
695,0.695,20,0.0001
696,0.696,20,0.0001
697,0.697,20,0.0001
698,0.698,20,0.0001
699,0.699,20,0.0001
700,0.7,20,0.0001
701,0.701,20,0.0001
702,0.702,20,0.0001
703,0.703,20,0.0001
704,0.704,20,0.0001
705,0.705,21,0.000105
706,0.706,21,0.000105
707,0.707,21,0.000105
708,0.708,21,0.000105
709,0.709,22,0.00011
710,0.71,22,0.00011
711,0.711,22,0.00011
712,0.712,23,0.000115
713,0.713,24,0.00012
714,0.714,24,0.00012
715,0.715,25,0.000125
716,0.716,26,0.00013
717,0.717,27,0.000135
718,0.718,28,0.00014
719,0.719,28,0.00014
720,0.72,28,0.00014
721,0.721,29,0.000145
722,0.722,29,0.000145
723,0.723,29,0.000145
724,0.724,30,0.00015
725,0.725,30,0.00015
726,0.726,30,0.00015
727,0.727,30,0.00015
728,0.728,31,0.000155
729,0.729,32,0.00016
730,0.73,33,0.000165
731,0.731,34,0.00017
732,0.732,34,0.00017
733,0.733,35,0.000175
734,0.734,36,0.00018
735,0.735,37,0.000185
736,0.736,38,0.00019
737,0.737,39,0.000195
738,0.738,40,0.0002
739,0.739,41,0.000205
740,0.74,42,0.00021
741,0.741,43,0.000215
742,0.742,44,0.00022
743,0.743,45,0.000225
744,0.744,46,0.00023
745,0.745,46,0.00023
746,0.746,47,0.000235
747,0.747,48,0.00024
748,0.748,49,0.000245
749,0.749,49,0.000245
750,0.75,50,0.00025
751,0.751,51,0.000255
752,0.752,53,0.000265
753,0.753,54,0.00027
754,0.754,55,0.000275
755,0.755,56,0.00028
756,0.756,58,0.00029
757,0.757,59,0.000295
758,0.758,60,0.0003
759,0.759,61,0.000305
760,0.76,61,0.000305
761,0.761,62,0.00031
762,0.762,62,0.00031
763,0.763,63,0.000315
764,0.764,63,0.000315
765,0.765,64,0.00032
766,0.766,64,0.00032
767,0.767,65,0.000325
768,0.768,67,0.000335
769,0.769,68,0.00034
770,0.77,69,0.000345
771,0.771,70,0.00035
772,0.772,71,0.000355
773,0.773,72,0.00036
774,0.774,73,0.000365
775,0.775,74,0.00037
776,0.776,75,0.000375
777,0.777,76,0.00038
778,0.778,77,0.000385
779,0.779,78,0.00039
780,0.78,79,0.000395
781,0.781,80,0.0004
782,0.782,81,0.000405
783,0.783,81,0.000405
784,0.784,82,0.00041
785,0.785,82,0.00041
786,0.786,83,0.000415
787,0.787,83,0.000415
788,0.788,84,0.00042
789,0.789,84,0.00042
790,0.79,85,0.000425
791,0.791,87,0.000435
792,0.792,89,0.000445
793,0.793,90,0.00045
794,0.794,92,0.00046
795,0.795,93,0.000465
796,0.796,95,0.000475
797,0.797,96,0.00048
798,0.798,97,0.000485
799,0.799,97,0.000485
800,0.8,98,0.00049
801,0.801,98,0.00049
802,0.802,99,0.000495
803,0.803,99,0.000495
804,0.804,100,0.0005
805,0.805,100,0.0005
806,0.806,100,0.0005
807,0.807,101,0.000505
808,0.808,101,0.000505
809,0.809,101,0.000505
810,0.81,102,0.00051
811,0.811,102,0.00051
812,0.812,102,0.00051
813,0.813,102,0.00051
814,0.814,102,0.00051
815,0.815,102,0.00051
816,0.816,102,0.00051
817,0.817,102,0.00051
818,0.818,102,0.00051
819,0.819,102,0.00051
820,0.82,102,0.00051
821,0.821,102,0.00051
822,0.822,101,0.000505
823,0.823,100,0.0005
824,0.824,99,0.000495
825,0.825,97,0.000485
826,0.826,96,0.00048
827,0.827,95,0.000475
828,0.828,94,0.00047
829,0.829,93,0.000465
830,0.83,91,0.000455
831,0.831,89,0.000445
832,0.832,87,0.000435
833,0.833,86,0.00043
834,0.834,84,0.00042
835,0.835,82,0.00041
836,0.836,80,0.0004
837,0.837,78,0.00039
838,0.838,77,0.000385
839,0.839,75,0.000375
840,0.84,73,0.000365
841,0.841,71,0.000355
842,0.842,69,0.000345
843,0.843,68,0.00034
844,0.844,66,0.00033
845,0.845,64,0.00032
846,0.846,61,0.000305
847,0.847,59,0.000295
848,0.848,57,0.000285
849,0.849,54,0.00027
850,0.85,52,0.00026
851,0.851,50,0.00025
852,0.852,48,0.00024
853,0.853,46,0.00023
854,0.854,45,0.000225
855,0.855,44,0.00022
856,0.856,43,0.000215
857,0.857,41,0.000205
858,0.858,40,0.0002
859,0.859,39,0.000195
860,0.86,37,0.000185
861,0.861,36,0.00018
862,0.862,34,0.00017
863,0.863,33,0.000165
864,0.864,31,0.000155
865,0.865,30,0.00015
866,0.866,28,0.00014
867,0.867,27,0.000135
868,0.868,25,0.000125
869,0.869,24,0.00012
870,0.87,23,0.000115
871,0.871,21,0.000105
872,0.872,20,0.0001
873,0.873,19,9.5e-05
874,0.874,18,9e-05
875,0.875,16,8e-05
876,0.876,16,8e-05
877,0.877,15,7.5e-05
878,0.878,15,7.5e-05
879,0.879,14,7e-05
880,0.88,14,7e-05
881,0.881,13,6.5e-05
882,0.882,13,6.5e-05
883,0.883,12,6e-05
884,0.884,12,6e-05
885,0.885,11,5.5e-05
886,0.886,11,5.5e-05
887,0.887,10,5e-05
888,0.888,10,5e-05
889,0.889,9,4.5e-05
890,0.89,9,4.5e-05
891,0.891,8,4e-05
892,0.892,8,4e-05
893,0.893,7,3.5e-05
894,0.894,7,3.5e-05
895,0.895,6,3e-05
896,0.896,5,2.5e-05
897,0.897,5,2.5e-05
898,0.898,4,2e-05
899,0.899,4,2e-05
900,0.9,4,2e-05
901,0.901,4,2e-05
902,0.902,3,1.5e-05
903,0.903,3,1.5e-05
904,0.904,3,1.5e-05
905,0.905,3,1.5e-05
906,0.906,2,1e-05
907,0.907,2,1e-05
908,0.908,2,1e-05
909,0.909,2,1e-05
910,0.91,1,5e-06
911,0.911,1,5e-06
912,0.912,1,5e-06
913,0.913,0,0.0
914,0.914,0,0.0
915,0.915,0,0.0
916,0.916,0,0.0
917,0.917,0,0.0
918,0.918,0,0.0
919,0.919,0,0.0
920,0.92,0,0.0
921,0.921,0,0.0
922,0.922,0,0.0
923,0.923,0,0.0
924,0.924,0,0.0
925,0.925,0,0.0
926,0.926,0,0.0
927,0.927,0,0.0
928,0.928,0,0.0
929,0.929,0,0.0
930,0.93,0,0.0
931,0.931,0,0.0
932,0.932,0,0.0
933,0.933,-1,-5e-06
934,0.934,-1,-5e-06
935,0.935,-1,-5e-06
936,0.936,-1,-5e-06
937,0.937,-2,-1e-05
938,0.938,-2,-1e-05
939,0.939,-1,-5e-06
940,0.94,-1,-5e-06
941,0.941,-1,-5e-06
942,0.942,-1,-5e-06
943,0.943,0,0.0
944,0.944,0,0.0
945,0.945,0,0.0
946,0.946,0,0.0
947,0.947,1,5e-06
948,0.948,1,5e-06
949,0.949,1,5e-06
950,0.95,1,5e-06
951,0.951,2,1e-05
952,0.952,2,1e-05
953,0.953,2,1e-05
954,0.954,2,1e-05
955,0.955,2,1e-05
956,0.956,2,1e-05
957,0.957,2,1e-05
958,0.958,2,1e-05
959,0.959,2,1e-05
960,0.96,2,1e-05
961,0.961,2,1e-05
962,0.962,2,1e-05
963,0.963,2,1e-05
964,0.964,1,5e-06
965,0.965,1,5e-06
966,0.966,1,5e-06
967,0.967,1,5e-06
968,0.968,0,0.0
969,0.969,0,0.0
970,0.97,0,0.0
971,0.971,1,5e-06
972,0.972,1,5e-06
973,0.973,1,5e-06
974,0.974,1,5e-06
975,0.975,2,1e-05
976,0.976,2,1e-05
977,0.977,2,1e-05
978,0.978,2,1e-05
979,0.979,2,1e-05
980,0.98,1,5e-06
981,0.981,1,5e-06
982,0.982,1,5e-06
983,0.983,1,5e-06
984,0.984,0,0.0
985,0.985,0,0.0
986,0.986,0,0.0
987,0.987,0,0.0
988,0.988,0,0.0
989,0.989,0,0.0
990,0.99,0,0.0
991,0.991,0,0.0
992,0.992,0,0.0
993,0.993,0,0.0
994,0.994,0,0.0
995,0.995,-1,-5e-06
996,0.996,-1,-5e-06
997,0.997,-1,-5e-06
998,0.998,-1,-5e-06
999,0.999,-2,-1e-05
1000,1.0,-2,-1e-05
1001,1.001,-2,-1e-05
1002,1.002,-1,-5e-06
1003,1.003,-1,-5e-06
1004,1.004,-1,-5e-06
1005,1.005,-1,-5e-06
1006,1.006,0,0.0
1007,1.007,0,0.0
1008,1.008,0,0.0
1009,1.009,0,0.0
1010,1.01,0,0.0
1011,1.011,0,0.0
1012,1.012,0,0.0
1013,1.013,0,0.0
1014,1.014,0,0.0
1015,1.015,0,0.0
1016,1.016,0,0.0
1017,1.017,0,0.0
1018,1.018,0,0.0
1019,1.019,0,0.0
1020,1.02,0,0.0
1021,1.021,0,0.0
1022,1.022,0,0.0
1023,1.023,0,0.0
1024,1.024,0,0.0
1025,1.025,0,0.0
1026,1.026,0,0.0
1027,1.027,-1,-5e-06
1028,1.028,-1,-5e-06
1029,1.029,-1,-5e-06
1030,1.03,-1,-5e-06
1031,1.031,-2,-1e-05
1032,1.032,-2,-1e-05
1033,1.033,-2,-1e-05
1034,1.034,-2,-1e-05
1035,1.035,-2,-1e-05
1036,1.036,-2,-1e-05
1037,1.037,-2,-1e-05
1038,1.038,-2,-1e-05
1039,1.039,-2,-1e-05
1040,1.04,-2,-1e-05
1041,1.041,-2,-1e-05
1042,1.042,-3,-1.5e-05
1043,1.043,-3,-1.5e-05
1044,1.044,-3,-1.5e-05
1045,1.045,-3,-1.5e-05
1046,1.046,-4,-2e-05
1047,1.047,-4,-2e-05
1048,1.048,-4,-2e-05
1049,1.049,-3,-1.5e-05
1050,1.05,-3,-1.5e-05
1051,1.051,-3,-1.5e-05
1052,1.052,-3,-1.5e-05
1053,1.053,-2,-1e-05
1054,1.054,-2,-1e-05
1055,1.055,-2,-1e-05
1056,1.056,-2,-1e-05
1057,1.057,-3,-1.5e-05
1058,1.058,-3,-1.5e-05
1059,1.059,-4,-2e-05
1060,1.06,-4,-2e-05
1061,1.061,-5,-2.5e-05
1062,1.062,-6,-3e-05
1063,1.063,-6,-3e-05
1064,1.064,-5,-2.5e-05
1065,1.065,-5,-2.5e-05
1066,1.066,-5,-2.5e-05
1067,1.067,-5,-2.5e-05
1068,1.068,-4,-2e-05
1069,1.069,-4,-2e-05
1070,1.07,-4,-2e-05
1071,1.071,-4,-2e-05
1072,1.072,-4,-2e-05
1073,1.073,-4,-2e-05
1074,1.074,-4,-2e-05
1075,1.075,-4,-2e-05
1076,1.076,-4,-2e-05
1077,1.077,-4,-2e-05
1078,1.078,-4,-2e-05
1079,1.079,-4,-2e-05
1080,1.08,-4,-2e-05
1081,1.081,-4,-2e-05
1082,1.082,-4,-2e-05
1083,1.083,-4,-2e-05
1084,1.084,-4,-2e-05
1085,1.085,-4,-2e-05
1086,1.086,-4,-2e-05
1087,1.087,-4,-2e-05
1088,1.088,-4,-2e-05
1089,1.089,-5,-2.5e-05
1090,1.09,-5,-2.5e-05
1091,1.091,-5,-2.5e-05
1092,1.092,-5,-2.5e-05
1093,1.093,-6,-3e-05
1094,1.094,-6,-3e-05
1095,1.095,-6,-3e-05
1096,1.096,-6,-3e-05
1097,1.097,-6,-3e-05
1098,1.098,-6,-3e-05
1099,1.099,-6,-3e-05
1100,1.1,-6,-3e-05
1101,1.101,-6,-3e-05
1102,1.102,-6,-3e-05
1103,1.103,-5,-2.5e-05
1104,1.104,-5,-2.5e-05
1105,1.105,-4,-2e-05
1106,1.106,-4,-2e-05
1107,1.107,-3,-1.5e-05
1108,1.108,-3,-1.5e-05
1109,1.109,-2,-1e-05
1110,1.11,-1,-5e-06
1111,1.111,0,0.0
1112,1.112,1,5e-06
1113,1.113,2,1e-05
1114,1.114,3,1.5e-05
1115,1.115,4,2e-05
1116,1.116,5,2.5e-05
1117,1.117,6,3e-05
1118,1.118,7,3.5e-05
1119,1.119,8,4e-05
1120,1.12,9,4.5e-05
1121,1.121,10,5e-05
1122,1.122,11,5.5e-05
1123,1.123,12,6e-05
1124,1.124,13,6.5e-05
1125,1.125,14,7e-05
1126,1.126,14,7e-05
1127,1.127,14,7e-05
1128,1.128,13,6.5e-05
1129,1.129,13,6.5e-05
1130,1.13,13,6.5e-05
1131,1.131,13,6.5e-05
1132,1.132,12,6e-05
1133,1.133,12,6e-05
1134,1.134,11,5.5e-05
1135,1.135,10,5e-05
1136,1.136,9,4.5e-05
1137,1.137,8,4e-05
1138,1.138,7,3.5e-05
1139,1.139,6,3e-05
1140,1.14,5,2.5e-05
1141,1.141,4,2e-05
1142,1.142,3,1.5e-05
1143,1.143,2,1e-05
1144,1.144,2,1e-05
1145,1.145,1,5e-06
1146,1.146,0,0.0
1147,1.147,-1,-5e-06
1148,1.148,-1,-5e-06
1149,1.149,-2,-1e-05
1150,1.15,-3,-1.5e-05
1151,1.151,-4,-2e-05
1152,1.152,-4,-2e-05
1153,1.153,-5,-2.5e-05
1154,1.154,-6,-3e-05
1155,1.155,-7,-3.5e-05
1156,1.156,-8,-4e-05
1157,1.157,-8,-4e-05
1158,1.158,-8,-4e-05
1159,1.159,-8,-4e-05
1160,1.16,-9,-4.5e-05
1161,1.161,-9,-4.5e-05
1162,1.162,-9,-4.5e-05
1163,1.163,-10,-5e-05
1164,1.164,-10,-5e-05
1165,1.165,-10,-5e-05
1166,1.166,-11,-5.5e-05
1167,1.167,-11,-5.5e-05
1168,1.168,-12,-6e-05
1169,1.169,-12,-6e-05
1170,1.17,-13,-6.5e-05
1171,1.171,-13,-6.5e-05
1172,1.172,-14,-7e-05
1173,1.173,-14,-7e-05
1174,1.174,-14,-7e-05
1175,1.175,-14,-7e-05
1176,1.176,-14,-7e-05
1177,1.177,-14,-7e-05
1178,1.178,-14,-7e-05
1179,1.179,-14,-7e-05
1180,1.18,-14,-7e-05
1181,1.181,-14,-7e-05
1182,1.182,-14,-7e-05
1183,1.183,-15,-7.5e-05
1184,1.184,-15,-7.5e-05
1185,1.185,-15,-7.5e-05
1186,1.186,-15,-7.5e-05
1187,1.187,-16,-8e-05
1188,1.188,-16,-8e-05
1189,1.189,-15,-7.5e-05
1190,1.19,-15,-7.5e-05
1191,1.191,-15,-7.5e-05
1192,1.192,-15,-7.5e-05
1193,1.193,-14,-7e-05
1194,1.194,-14,-7e-05
1195,1.195,-14,-7e-05
1196,1.196,-14,-7e-05
1197,1.197,-14,-7e-05
1198,1.198,-14,-7e-05
1199,1.199,-14,-7e-05
1200,1.2,-14,-7e-05
1201,1.201,-14,-7e-05
1202,1.202,-14,-7e-05
1203,1.203,-14,-7e-05
1204,1.204,-14,-7e-05
1205,1.205,-14,-7e-05
1206,1.206,-15,-7.5e-05
1207,1.207,-15,-7.5e-05
1208,1.208,-15,-7.5e-05
1209,1.209,-15,-7.5e-05
1210,1.21,-16,-8e-05
1211,1.211,-16,-8e-05
1212,1.212,-16,-8e-05
1213,1.213,-16,-8e-05
1214,1.214,-17,-8.5e-05
1215,1.215,-17,-8.5e-05
1216,1.216,-17,-8.5e-05
1217,1.217,-17,-8.5e-05
1218,1.218,-18,-9e-05
1219,1.219,-18,-9e-05
1220,1.22,-18,-9e-05
1221,1.221,-17,-8.5e-05
1222,1.222,-17,-8.5e-05
1223,1.223,-17,-8.5e-05
1224,1.224,-17,-8.5e-05
1225,1.225,-16,-8e-05
1226,1.226,-16,-8e-05
1227,1.227,-16,-8e-05
1228,1.228,-15,-7.5e-05
1229,1.229,-15,-7.5e-05
1230,1.23,-15,-7.5e-05
1231,1.231,-15,-7.5e-05
1232,1.232,-14,-7e-05
1233,1.233,-14,-7e-05
1234,1.234,-14,-7e-05
1235,1.235,-14,-7e-05
1236,1.236,-13,-6.5e-05
1237,1.237,-13,-6.5e-05
1238,1.238,-13,-6.5e-05
1239,1.239,-13,-6.5e-05
1240,1.24,-12,-6e-05
1241,1.241,-12,-6e-05
1242,1.242,-12,-6e-05
1243,1.243,-12,-6e-05
1244,1.244,-11,-5.5e-05
1245,1.245,-11,-5.5e-05
1246,1.246,-11,-5.5e-05
1247,1.247,-11,-5.5e-05
1248,1.248,-10,-5e-05
1249,1.249,-10,-5e-05
1250,1.25,-10,-5e-05
1251,1.251,-9,-4.5e-05
1252,1.252,-9,-4.5e-05
1253,1.253,-8,-4e-05
1254,1.254,-8,-4e-05
1255,1.255,-7,-3.5e-05
1256,1.256,-7,-3.5e-05
1257,1.257,-6,-3e-05
1258,1.258,-6,-3e-05
1259,1.259,-6,-3e-05
1260,1.26,-5,-2.5e-05
1261,1.261,-5,-2.5e-05
1262,1.262,-5,-2.5e-05
1263,1.263,-5,-2.5e-05
1264,1.264,-4,-2e-05
1265,1.265,-4,-2e-05
1266,1.266,-5,-2.5e-05
1267,1.267,-8,-4e-05
1268,1.268,-12,-6e-05
1269,1.269,-15,-7.5e-05
1270,1.27,-19,-9.5e-05
1271,1.271,-23,-0.000115
1272,1.272,-26,-0.00013
1273,1.273,-30,-0.00015
1274,1.274,-33,-0.000165
1275,1.275,-36,-0.00018
1276,1.276,-39,-0.000195
1277,1.277,-42,-0.00021
1278,1.278,-45,-0.000225
1279,1.279,-48,-0.00024
1280,1.28,-52,-0.00026
1281,1.281,-55,-0.000275
1282,1.282,-52,-0.00026
1283,1.283,-46,-0.00023
1284,1.284,-39,-0.000195
1285,1.285,-33,-0.000165
1286,1.286,-26,-0.00013
1287,1.287,-20,-0.0001
1288,1.288,-14,-7e-05
1289,1.289,-7,-3.5e-05
1290,1.29,10,5e-05
1291,1.291,29,0.000145
1292,1.292,48,0.00024
1293,1.293,68,0.00034
1294,1.294,87,0.000435
1295,1.295,107,0.000535
1296,1.296,126,0.00063
1297,1.297,146,0.00073
1298,1.298,173,0.000865
1299,1.299,200,0.001
1300,1.3,228,0.00114
1301,1.301,255,0.001275
1302,1.302,283,0.001415
1303,1.303,310,0.00155
1304,1.304,337,0.001685
1305,1.305,359,0.001795
1306,1.306,354,0.00177
1307,1.307,349,0.001745
1308,1.308,344,0.00172
1309,1.309,339,0.001695
1310,1.31,334,0.00167
1311,1.311,329,0.001645
1312,1.312,324,0.00162
1313,1.313,307,0.001535
1314,1.314,271,0.001355
1315,1.315,235,0.001175
1316,1.316,198,0.00099
1317,1.317,162,0.00081
1318,1.318,126,0.00063
1319,1.319,89,0.000445
1320,1.32,53,0.000265
1321,1.321,28,0.00014
1322,1.322,12,6e-05
1323,1.323,-4,-2e-05
1324,1.324,-20,-0.0001
1325,1.325,-36,-0.00018
1326,1.326,-52,-0.00026
1327,1.327,-68,-0.00034
1328,1.328,-83,-0.000415
1329,1.329,-87,-0.000435
1330,1.33,-85,-0.000425
1331,1.331,-83,-0.000415
1332,1.332,-81,-0.000405
1333,1.333,-79,-0.000395
1334,1.334,-78,-0.00039
1335,1.335,-76,-0.00038
1336,1.336,-74,-0.00037
1337,1.337,-69,-0.000345
1338,1.338,-65,-0.000325
1339,1.339,-60,-0.0003
1340,1.34,-55,-0.000275
1341,1.341,-50,-0.00025
1342,1.342,-45,-0.000225
1343,1.343,-40,-0.0002
1344,1.344,-35,-0.000175
1345,1.345,-32,-0.00016
1346,1.346,-28,-0.00014
1347,1.347,-25,-0.000125
1348,1.348,-21,-0.000105
1349,1.349,-18,-9e-05
1350,1.35,-14,-7e-05
1351,1.351,-10,-5e-05
1352,1.352,-8,-4e-05
1353,1.353,-7,-3.5e-05
1354,1.354,-7,-3.5e-05
1355,1.355,-7,-3.5e-05
1356,1.356,-7,-3.5e-05
1357,1.357,-6,-3e-05
1358,1.358,-6,-3e-05
1359,1.359,-6,-3e-05
1360,1.36,-6,-3e-05
1361,1.361,-6,-3e-05
1362,1.362,-6,-3e-05
1363,1.363,-7,-3.5e-05
1364,1.364,-7,-3.5e-05
1365,1.365,-7,-3.5e-05
1366,1.366,-7,-3.5e-05
1367,1.367,-8,-4e-05
1368,1.368,-8,-4e-05
1369,1.369,-9,-4.5e-05
1370,1.37,-10,-5e-05
1371,1.371,-11,-5.5e-05
1372,1.372,-11,-5.5e-05
1373,1.373,-12,-6e-05
1374,1.374,-13,-6.5e-05
1375,1.375,-14,-7e-05
1376,1.376,-14,-7e-05
1377,1.377,-13,-6.5e-05
1378,1.378,-13,-6.5e-05
1379,1.379,-13,-6.5e-05
1380,1.38,-13,-6.5e-05
1381,1.381,-12,-6e-05
1382,1.382,-12,-6e-05
1383,1.383,-12,-6e-05
1384,1.384,-12,-6e-05
1385,1.385,-11,-5.5e-05
1386,1.386,-11,-5.5e-05
1387,1.387,-11,-5.5e-05
1388,1.388,-11,-5.5e-05
1389,1.389,-10,-5e-05
1390,1.39,-10,-5e-05
1391,1.391,-10,-5e-05
1392,1.392,-10,-5e-05
1393,1.393,-10,-5e-05
1394,1.394,-10,-5e-05
1395,1.395,-10,-5e-05
1396,1.396,-10,-5e-05
1397,1.397,-10,-5e-05
1398,1.398,-10,-5e-05
1399,1.399,-10,-5e-05
1400,1.4,-10,-5e-05
1401,1.401,-10,-5e-05
1402,1.402,-11,-5.5e-05
1403,1.403,-11,-5.5e-05
1404,1.404,-11,-5.5e-05
1405,1.405,-11,-5.5e-05
1406,1.406,-12,-6e-05
1407,1.407,-12,-6e-05
1408,1.408,-12,-6e-05
1409,1.409,-12,-6e-05
1410,1.41,-12,-6e-05
1411,1.411,-12,-6e-05
1412,1.412,-12,-6e-05
1413,1.413,-12,-6e-05
1414,1.414,-12,-6e-05
1415,1.415,-11,-5.5e-05
1416,1.416,-11,-5.5e-05
1417,1.417,-10,-5e-05
1418,1.418,-10,-5e-05
1419,1.419,-9,-4.5e-05
1420,1.42,-9,-4.5e-05
1421,1.421,-8,-4e-05
1422,1.422,-8,-4e-05
1423,1.423,-8,-4e-05
1424,1.424,-8,-4e-05
1425,1.425,-8,-4e-05
1426,1.426,-8,-4e-05
1427,1.427,-8,-4e-05
1428,1.428,-8,-4e-05
1429,1.429,-8,-4e-05
1430,1.43,-8,-4e-05
1431,1.431,-8,-4e-05
1432,1.432,-7,-3.5e-05
1433,1.433,-7,-3.5e-05
1434,1.434,-7,-3.5e-05
1435,1.435,-7,-3.5e-05
1436,1.436,-6,-3e-05
1437,1.437,-6,-3e-05
1438,1.438,-6,-3e-05
1439,1.439,-5,-2.5e-05
1440,1.44,-5,-2.5e-05
1441,1.441,-4,-2e-05
1442,1.442,-4,-2e-05
1443,1.443,-3,-1.5e-05
1444,1.444,-3,-1.5e-05
1445,1.445,-2,-1e-05
1446,1.446,-2,-1e-05
1447,1.447,-2,-1e-05
1448,1.448,-2,-1e-05
1449,1.449,-2,-1e-05
1450,1.45,-2,-1e-05
1451,1.451,-2,-1e-05
1452,1.452,-2,-1e-05
1453,1.453,-2,-1e-05
1454,1.454,-2,-1e-05
1455,1.455,-1,-5e-06
1456,1.456,-1,-5e-06
1457,1.457,-1,-5e-06
1458,1.458,-1,-5e-06
1459,1.459,0,0.0
1460,1.46,0,0.0
1461,1.461,0,0.0
1462,1.462,0,0.0
1463,1.463,0,0.0
1464,1.464,0,0.0
1465,1.465,0,0.0
1466,1.466,0,0.0
1467,1.467,0,0.0
1468,1.468,0,0.0
1469,1.469,0,0.0
1470,1.47,1,5e-06
1471,1.471,1,5e-06
1472,1.472,2,1e-05
1473,1.473,2,1e-05
1474,1.474,3,1.5e-05
1475,1.475,3,1.5e-05
1476,1.476,4,2e-05
1477,1.477,4,2e-05
1478,1.478,4,2e-05
1479,1.479,4,2e-05
1480,1.48,4,2e-05
1481,1.481,4,2e-05
1482,1.482,4,2e-05
1483,1.483,4,2e-05
1484,1.484,4,2e-05
1485,1.485,4,2e-05
1486,1.486,5,2.5e-05
1487,1.487,5,2.5e-05
1488,1.488,6,3e-05
1489,1.489,6,3e-05
1490,1.49,7,3.5e-05
1491,1.491,7,3.5e-05
1492,1.492,8,4e-05
1493,1.493,8,4e-05
1494,1.494,9,4.5e-05
1495,1.495,9,4.5e-05
1496,1.496,9,4.5e-05
1497,1.497,9,4.5e-05
1498,1.498,10,5e-05
1499,1.499,10,5e-05
1500,1.5,10,5e-05
1501,1.501,11,5.5e-05
1502,1.502,11,5.5e-05
1503,1.503,12,6e-05
1504,1.504,12,6e-05
1505,1.505,13,6.5e-05
1506,1.506,13,6.5e-05
1507,1.507,14,7e-05
1508,1.508,14,7e-05
1509,1.509,15,7.5e-05
1510,1.51,16,8e-05
1511,1.511,16,8e-05
1512,1.512,17,8.5e-05
1513,1.513,18,9e-05
1514,1.514,19,9.5e-05
1515,1.515,20,0.0001
1516,1.516,20,0.0001
1517,1.517,20,0.0001
1518,1.518,21,0.000105
1519,1.519,21,0.000105
1520,1.52,21,0.000105
1521,1.521,22,0.00011
1522,1.522,22,0.00011
1523,1.523,22,0.00011
1524,1.524,22,0.00011
1525,1.525,23,0.000115
1526,1.526,23,0.000115
1527,1.527,24,0.00012
1528,1.528,24,0.00012
1529,1.529,25,0.000125
1530,1.53,25,0.000125
1531,1.531,26,0.00013
1532,1.532,27,0.000135
1533,1.533,28,0.00014
1534,1.534,29,0.000145
1535,1.535,30,0.00015
1536,1.536,31,0.000155
1537,1.537,32,0.00016
1538,1.538,33,0.000165
1539,1.539,34,0.00017
1540,1.54,34,0.00017
1541,1.541,35,0.000175
1542,1.542,35,0.000175
1543,1.543,35,0.000175
1544,1.544,35,0.000175
1545,1.545,36,0.00018
1546,1.546,36,0.00018
1547,1.547,36,0.00018
1548,1.548,37,0.000185
1549,1.549,38,0.00019
1550,1.55,39,0.000195
1551,1.551,40,0.0002
1552,1.552,41,0.000205
1553,1.553,42,0.00021
1554,1.554,43,0.000215
1555,1.555,44,0.00022
1556,1.556,45,0.000225
1557,1.557,46,0.00023
1558,1.558,47,0.000235
1559,1.559,48,0.00024
1560,1.56,49,0.000245
1561,1.561,50,0.00025
1562,1.562,51,0.000255
1563,1.563,52,0.00026
1564,1.564,53,0.000265
1565,1.565,54,0.00027
1566,1.566,55,0.000275
1567,1.567,56,0.00028
1568,1.568,56,0.00028
1569,1.569,57,0.000285
1570,1.57,58,0.00029
1571,1.571,59,0.000295
1572,1.572,60,0.0003
1573,1.573,62,0.00031
1574,1.574,64,0.00032
1575,1.575,65,0.000325
1576,1.576,67,0.000335
1577,1.577,68,0.00034
1578,1.578,70,0.00035
1579,1.579,71,0.000355
1580,1.58,72,0.00036
1581,1.581,73,0.000365
1582,1.582,74,0.00037
1583,1.583,75,0.000375
1584,1.584,76,0.00038
1585,1.585,77,0.000385
1586,1.586,78,0.00039
1587,1.587,79,0.000395
1588,1.588,79,0.000395
1589,1.589,80,0.0004
1590,1.59,80,0.0004
1591,1.591,81,0.000405
1592,1.592,81,0.000405
1593,1.593,82,0.00041
1594,1.594,82,0.00041
1595,1.595,84,0.00042
1596,1.596,85,0.000425
1597,1.597,86,0.00043
1598,1.598,87,0.000435
1599,1.599,89,0.000445
1600,1.6,90,0.00045
1601,1.601,91,0.000455
1602,1.602,92,0.00046
1603,1.603,93,0.000465
1604,1.604,93,0.000465
1605,1.605,94,0.00047
1606,1.606,94,0.00047
1607,1.607,95,0.000475
1608,1.608,95,0.000475
1609,1.609,96,0.00048
1610,1.61,96,0.00048
1611,1.611,97,0.000485
1612,1.612,97,0.000485
1613,1.613,98,0.00049
1614,1.614,98,0.00049
1615,1.615,99,0.000495
1616,1.616,99,0.000495
1617,1.617,100,0.0005
1618,1.618,100,0.0005
1619,1.619,99,0.000495
1620,1.62,98,0.00049
1621,1.621,97,0.000485
1622,1.622,97,0.000485
1623,1.623,96,0.00048
1624,1.624,95,0.000475
1625,1.625,94,0.00047
1626,1.626,93,0.000465
1627,1.627,92,0.00046
1628,1.628,91,0.000455
1629,1.629,89,0.000445
1630,1.63,88,0.00044
1631,1.631,87,0.000435
1632,1.632,85,0.000425
1633,1.633,84,0.00042
1634,1.634,83,0.000415
1635,1.635,81,0.000405
1636,1.636,80,0.0004
1637,1.637,78,0.00039
1638,1.638,76,0.00038
1639,1.639,75,0.000375
1640,1.64,73,0.000365
1641,1.641,72,0.00036
1642,1.642,70,0.00035
1643,1.643,68,0.00034
1644,1.644,66,0.00033
1645,1.645,65,0.000325
1646,1.646,63,0.000315
1647,1.647,61,0.000305
1648,1.648,59,0.000295
1649,1.649,57,0.000285
1650,1.65,55,0.000275
1651,1.651,53,0.000265
1652,1.652,51,0.000255
1653,1.653,49,0.000245
1654,1.654,47,0.000235
1655,1.655,45,0.000225
1656,1.656,43,0.000215
1657,1.657,42,0.00021
1658,1.658,41,0.000205
1659,1.659,40,0.0002
1660,1.66,39,0.000195
1661,1.661,38,0.00019
1662,1.662,36,0.00018
1663,1.663,35,0.000175
1664,1.664,34,0.00017
1665,1.665,33,0.000165
1666,1.666,31,0.000155
1667,1.667,29,0.000145
1668,1.668,27,0.000135
1669,1.669,26,0.00013
1670,1.67,24,0.00012
1671,1.671,22,0.00011
1672,1.672,20,0.0001
1673,1.673,19,9.5e-05
1674,1.674,19,9.5e-05
1675,1.675,18,9e-05
1676,1.676,17,8.5e-05
1677,1.677,16,8e-05
1678,1.678,16,8e-05
1679,1.679,15,7.5e-05
1680,1.68,14,7e-05
1681,1.681,13,6.5e-05
1682,1.682,12,6e-05
1683,1.683,11,5.5e-05
1684,1.684,10,5e-05
1685,1.685,9,4.5e-05
1686,1.686,8,4e-05
1687,1.687,7,3.5e-05
1688,1.688,6,3e-05
1689,1.689,6,3e-05
1690,1.69,6,3e-05
1691,1.691,5,2.5e-05
1692,1.692,5,2.5e-05
1693,1.693,5,2.5e-05
1694,1.694,5,2.5e-05
1695,1.695,4,2e-05
1696,1.696,4,2e-05
1697,1.697,4,2e-05
1698,1.698,4,2e-05
1699,1.699,4,2e-05
1700,1.7,4,2e-05
1701,1.701,4,2e-05
1702,1.702,4,2e-05
1703,1.703,4,2e-05
1704,1.704,4,2e-05
1705,1.705,4,2e-05
1706,1.706,3,1.5e-05
1707,1.707,3,1.5e-05
1708,1.708,3,1.5e-05
1709,1.709,3,1.5e-05
1710,1.71,2,1e-05
1711,1.711,2,1e-05
1712,1.712,2,1e-05
1713,1.713,1,5e-06
1714,1.714,1,5e-06
1715,1.715,0,0.0
1716,1.716,0,0.0
1717,1.717,-1,-5e-06
1718,1.718,-1,-5e-06
1719,1.719,-2,-1e-05
1720,1.72,-1,-5e-06
1721,1.721,0,0.0
1722,1.722,1,5e-06
1723,1.723,1,5e-06
1724,1.724,2,1e-05
1725,1.725,3,1.5e-05
1726,1.726,4,2e-05
1727,1.727,4,2e-05
1728,1.728,3,1.5e-05
1729,1.729,2,1e-05
1730,1.73,2,1e-05
1731,1.731,1,5e-06
1732,1.732,0,0.0
1733,1.733,-1,-5e-06
1734,1.734,-1,-5e-06
1735,1.735,-2,-1e-05
1736,1.736,-1,-5e-06
1737,1.737,-1,-5e-06
1738,1.738,-1,-5e-06
1739,1.739,-1,-5e-06
1740,1.74,0,0.0
1741,1.741,0,0.0
1742,1.742,0,0.0
1743,1.743,0,0.0
1744,1.744,0,0.0
1745,1.745,0,0.0
1746,1.746,-1,-5e-06
1747,1.747,-1,-5e-06
1748,1.748,-1,-5e-06
1749,1.749,-2,-1e-05
1750,1.75,-2,-1e-05
1751,1.751,-2,-1e-05
1752,1.752,-1,-5e-06
1753,1.753,-1,-5e-06
1754,1.754,-1,-5e-06
1755,1.755,-1,-5e-06
1756,1.756,0,0.0
1757,1.757,0,0.0
1758,1.758,0,0.0
1759,1.759,0,0.0
1760,1.76,0,0.0
1761,1.761,0,0.0
1762,1.762,0,0.0
1763,1.763,0,0.0
1764,1.764,0,0.0
1765,1.765,0,0.0
1766,1.766,0,0.0
1767,1.767,0,0.0
1768,1.768,0,0.0
1769,1.769,0,0.0
1770,1.77,0,0.0
1771,1.771,0,0.0
1772,1.772,0,0.0
1773,1.773,0,0.0
1774,1.774,0,0.0
1775,1.775,0,0.0
1776,1.776,0,0.0
1777,1.777,-1,-5e-06
1778,1.778,-1,-5e-06
1779,1.779,-1,-5e-06
1780,1.78,-1,-5e-06
1781,1.781,-2,-1e-05
1782,1.782,-2,-1e-05
1783,1.783,-2,-1e-05
1784,1.784,-2,-1e-05
1785,1.785,-2,-1e-05
1786,1.786,-2,-1e-05
1787,1.787,-2,-1e-05
1788,1.788,-2,-1e-05
1789,1.789,-2,-1e-05
1790,1.79,-2,-1e-05
1791,1.791,-2,-1e-05
1792,1.792,-2,-1e-05
1793,1.793,-2,-1e-05
1794,1.794,-2,-1e-05
1795,1.795,-2,-1e-05
1796,1.796,-2,-1e-05
1797,1.797,-2,-1e-05
1798,1.798,-2,-1e-05
1799,1.799,-1,-5e-06
1800,1.8,-1,-5e-06
1801,1.801,-1,-5e-06
1802,1.802,-1,-5e-06
1803,1.803,0,0.0
1804,1.804,0,0.0
1805,1.805,0,0.0
1806,1.806,0,0.0
1807,1.807,0,0.0
1808,1.808,-1,-5e-06
1809,1.809,-1,-5e-06
1810,1.81,-1,-5e-06
1811,1.811,-1,-5e-06
1812,1.812,-2,-1e-05
1813,1.813,-2,-1e-05
1814,1.814,-2,-1e-05
1815,1.815,-2,-1e-05
1816,1.816,-2,-1e-05
1817,1.817,-2,-1e-05
1818,1.818,-2,-1e-05
1819,1.819,-2,-1e-05
1820,1.82,-2,-1e-05
1821,1.821,-2,-1e-05
1822,1.822,-2,-1e-05
1823,1.823,-2,-1e-05
1824,1.824,-2,-1e-05
1825,1.825,-2,-1e-05
1826,1.826,-2,-1e-05
1827,1.827,-2,-1e-05
1828,1.828,-2,-1e-05
1829,1.829,-2,-1e-05
1830,1.83,-2,-1e-05
1831,1.831,-3,-1.5e-05
1832,1.832,-3,-1.5e-05
1833,1.833,-3,-1.5e-05
1834,1.834,-3,-1.5e-05
1835,1.835,-4,-2e-05
1836,1.836,-4,-2e-05
1837,1.837,-4,-2e-05
1838,1.838,-4,-2e-05
1839,1.839,-4,-2e-05
1840,1.84,-4,-2e-05
1841,1.841,-4,-2e-05
1842,1.842,-4,-2e-05
1843,1.843,-4,-2e-05
1844,1.844,-4,-2e-05
1845,1.845,-4,-2e-05
1846,1.846,-4,-2e-05
1847,1.847,-5,-2.5e-05
1848,1.848,-5,-2.5e-05
1849,1.849,-5,-2.5e-05
1850,1.85,-5,-2.5e-05
1851,1.851,-6,-3e-05
1852,1.852,-6,-3e-05
1853,1.853,-6,-3e-05
1854,1.854,-6,-3e-05
1855,1.855,-6,-3e-05
1856,1.856,-6,-3e-05
1857,1.857,-6,-3e-05
1858,1.858,-6,-3e-05
1859,1.859,-6,-3e-05
1860,1.86,-6,-3e-05
1861,1.861,-6,-3e-05
1862,1.862,-6,-3e-05
1863,1.863,-6,-3e-05
1864,1.864,-6,-3e-05
1865,1.865,-6,-3e-05
1866,1.866,-6,-3e-05
1867,1.867,-6,-3e-05
1868,1.868,-6,-3e-05
1869,1.869,-6,-3e-05
1870,1.87,-6,-3e-05
1871,1.871,-7,-3.5e-05
1872,1.872,-7,-3.5e-05
1873,1.873,-7,-3.5e-05
1874,1.874,-8,-4e-05
1875,1.875,-8,-4e-05
1876,1.876,-8,-4e-05
1877,1.877,-7,-3.5e-05
1878,1.878,-7,-3.5e-05
1879,1.879,-7,-3.5e-05
1880,1.88,-7,-3.5e-05
1881,1.881,-6,-3e-05
1882,1.882,-6,-3e-05
1883,1.883,-6,-3e-05
1884,1.884,-6,-3e-05
1885,1.885,-6,-3e-05
1886,1.886,-7,-3.5e-05
1887,1.887,-7,-3.5e-05
1888,1.888,-7,-3.5e-05
1889,1.889,-7,-3.5e-05
1890,1.89,-8,-4e-05
1891,1.891,-8,-4e-05
1892,1.892,-8,-4e-05
1893,1.893,-8,-4e-05
1894,1.894,-8,-4e-05
1895,1.895,-8,-4e-05
1896,1.896,-8,-4e-05
1897,1.897,-8,-4e-05
1898,1.898,-8,-4e-05
1899,1.899,-8,-4e-05
1900,1.9,-9,-4.5e-05
1901,1.901,-9,-4.5e-05
1902,1.902,-10,-5e-05
1903,1.903,-10,-5e-05
1904,1.904,-11,-5.5e-05
1905,1.905,-11,-5.5e-05
1906,1.906,-12,-6e-05
1907,1.907,-12,-6e-05
1908,1.908,-11,-5.5e-05
1909,1.909,-11,-5.5e-05
1910,1.91,-11,-5.5e-05
1911,1.911,-11,-5.5e-05
1912,1.912,-10,-5e-05
1913,1.913,-10,-5e-05
1914,1.914,-10,-5e-05
1915,1.915,-10,-5e-05
1916,1.916,-10,-5e-05
1917,1.917,-11,-5.5e-05
1918,1.918,-11,-5.5e-05
1919,1.919,-11,-5.5e-05
1920,1.92,-11,-5.5e-05
1921,1.921,-12,-6e-05
1922,1.922,-12,-6e-05
1923,1.923,-12,-6e-05
1924,1.924,-11,-5.5e-05
1925,1.925,-11,-5.5e-05
1926,1.926,-11,-5.5e-05
1927,1.927,-11,-5.5e-05
1928,1.928,-10,-5e-05
1929,1.929,-10,-5e-05
1930,1.93,-10,-5e-05
1931,1.931,-10,-5e-05
1932,1.932,-10,-5e-05
1933,1.933,-10,-5e-05
1934,1.934,-10,-5e-05
1935,1.935,-10,-5e-05
1936,1.936,-10,-5e-05
1937,1.937,-10,-5e-05
1938,1.938,-10,-5e-05
1939,1.939,-10,-5e-05
1940,1.94,-10,-5e-05
1941,1.941,-10,-5e-05
1942,1.942,-10,-5e-05
1943,1.943,-10,-5e-05
1944,1.944,-10,-5e-05
1945,1.945,-10,-5e-05
1946,1.946,-10,-5e-05
1947,1.947,-10,-5e-05
1948,1.948,-10,-5e-05
1949,1.949,-10,-5e-05
1950,1.95,-10,-5e-05
1951,1.951,-10,-5e-05
1952,1.952,-10,-5e-05
1953,1.953,-10,-5e-05
1954,1.954,-10,-5e-05
1955,1.955,-10,-5e-05
1956,1.956,-10,-5e-05
1957,1.957,-11,-5.5e-05
1958,1.958,-11,-5.5e-05
1959,1.959,-11,-5.5e-05
1960,1.96,-12,-6e-05
1961,1.961,-12,-6e-05
1962,1.962,-12,-6e-05
1963,1.963,-12,-6e-05
1964,1.964,-12,-6e-05
1965,1.965,-12,-6e-05
1966,1.966,-12,-6e-05
1967,1.967,-12,-6e-05
1968,1.968,-12,-6e-05
1969,1.969,-12,-6e-05
1970,1.97,-12,-6e-05
1971,1.971,-11,-5.5e-05
1972,1.972,-11,-5.5e-05
1973,1.973,-11,-5.5e-05
1974,1.974,-11,-5.5e-05
1975,1.975,-10,-5e-05
1976,1.976,-10,-5e-05
1977,1.977,-10,-5e-05
1978,1.978,-10,-5e-05
1979,1.979,-10,-5e-05
1980,1.98,-10,-5e-05
1981,1.981,-10,-5e-05
1982,1.982,-10,-5e-05
1983,1.983,-10,-5e-05
1984,1.984,-10,-5e-05
1985,1.985,-10,-5e-05
1986,1.986,-10,-5e-05
1987,1.987,-10,-5e-05
1988,1.988,-10,-5e-05
1989,1.989,-10,-5e-05
1990,1.99,-10,-5e-05
1991,1.991,-10,-5e-05
1992,1.992,-10,-5e-05
1993,1.993,-10,-5e-05
1994,1.994,-10,-5e-05
1995,1.995,-10,-5e-05
1996,1.996,-10,-5e-05
1997,1.997,-10,-5e-05
1998,1.998,-10,-5e-05
1999,1.999,-10,-5e-05
2000,2.0,-10,-5e-05
2001,2.001,-10,-5e-05
2002,2.002,-10,-5e-05
2003,2.003,-10,-5e-05
2004,2.004,-10,-5e-05
2005,2.005,-10,-5e-05
2006,2.006,-10,-5e-05
2007,2.007,-10,-5e-05
2008,2.008,-10,-5e-05
2009,2.009,-10,-5e-05
2010,2.01,-9,-4.5e-05
2011,2.011,-9,-4.5e-05
2012,2.012,-9,-4.5e-05
2013,2.013,-9,-4.5e-05
2014,2.014,-8,-4e-05
2015,2.015,-8,-4e-05
2016,2.016,-8,-4e-05
2017,2.017,-8,-4e-05
2018,2.018,-8,-4e-05
2019,2.019,-8,-4e-05
2020,2.02,-8,-4e-05
2021,2.021,-8,-4e-05
2022,2.022,-8,-4e-05
2023,2.023,-8,-4e-05
2024,2.024,-8,-4e-05
2025,2.025,-8,-4e-05
2026,2.026,-8,-4e-05
2027,2.027,-9,-4.5e-05
2028,2.028,-9,-4.5e-05
2029,2.029,-9,-4.5e-05
2030,2.03,-9,-4.5e-05
2031,2.031,-10,-5e-05
2032,2.032,-10,-5e-05
2033,2.033,-9,-4.5e-05
2034,2.034,-9,-4.5e-05
2035,2.035,-9,-4.5e-05
2036,2.036,-9,-4.5e-05
2037,2.037,-8,-4e-05
2038,2.038,-8,-4e-05
2039,2.039,-8,-4e-05
2040,2.04,-8,-4e-05
2041,2.041,-8,-4e-05
2042,2.042,-9,-4.5e-05
2043,2.043,-9,-4.5e-05
2044,2.044,-9,-4.5e-05
2045,2.045,-9,-4.5e-05
2046,2.046,-10,-5e-05
2047,2.047,-10,-5e-05
2048,2.048,-10,-5e-05
2049,2.049,-9,-4.5e-05
2050,2.05,-9,-4.5e-05
2051,2.051,-9,-4.5e-05
2052,2.052,-9,-4.5e-05
2053,2.053,-8,-4e-05
2054,2.054,-8,-4e-05
2055,2.055,-8,-4e-05
2056,2.056,-8,-4e-05
2057,2.057,-8,-4e-05
2058,2.058,-9,-4.5e-05
2059,2.059,-9,-4.5e-05
2060,2.06,-9,-4.5e-05
2061,2.061,-9,-4.5e-05
2062,2.062,-10,-5e-05
2063,2.063,-10,-5e-05
2064,2.064,-10,-5e-05
2065,2.065,-10,-5e-05
2066,2.066,-10,-5e-05
2067,2.067,-10,-5e-05
2068,2.068,-10,-5e-05
2069,2.069,-10,-5e-05
2070,2.07,-10,-5e-05
2071,2.071,-9,-4.5e-05
2072,2.072,-9,-4.5e-05
2073,2.073,-8,-4e-05
2074,2.074,-7,-3.5e-05
2075,2.075,-6,-3e-05
2076,2.076,-6,-3e-05
2077,2.077,-5,-2.5e-05
2078,2.078,-4,-2e-05
2079,2.079,-4,-2e-05
2080,2.08,-5,-2.5e-05
2081,2.081,-5,-2.5e-05
2082,2.082,-6,-3e-05
2083,2.083,-6,-3e-05
2084,2.084,-7,-3.5e-05
2085,2.085,-7,-3.5e-05
2086,2.086,-8,-4e-05
2087,2.087,-8,-4e-05
2088,2.088,-8,-4e-05
2089,2.089,-8,-4e-05
2090,2.09,-8,-4e-05
2091,2.091,-8,-4e-05
2092,2.092,-8,-4e-05
2093,2.093,-8,-4e-05
2094,2.094,-8,-4e-05
2095,2.095,-7,-3.5e-05
2096,2.096,-7,-3.5e-05
2097,2.097,-6,-3e-05
2098,2.098,-6,-3e-05
2099,2.099,-5,-2.5e-05
2100,2.1,-5,-2.5e-05
2101,2.101,-4,-2e-05
2102,2.102,-4,-2e-05
2103,2.103,-4,-2e-05
2104,2.104,-4,-2e-05
2105,2.105,-5,-2.5e-05
2106,2.106,-5,-2.5e-05
2107,2.107,-5,-2.5e-05
2108,2.108,-5,-2.5e-05
2109,2.109,-6,-3e-05
2110,2.11,-6,-3e-05
2111,2.111,-5,-2.5e-05
2112,2.112,-5,-2.5e-05
2113,2.113,-5,-2.5e-05
2114,2.114,-5,-2.5e-05
2115,2.115,-4,-2e-05
2116,2.116,-4,-2e-05
2117,2.117,-4,-2e-05
2118,2.118,-4,-2e-05
2119,2.119,-4,-2e-05
2120,2.12,-4,-2e-05
2121,2.121,-5,-2.5e-05
2122,2.122,-5,-2.5e-05
2123,2.123,-5,-2.5e-05
2124,2.124,-6,-3e-05
2125,2.125,-6,-3e-05
2126,2.126,-6,-3e-05
2127,2.127,-6,-3e-05
2128,2.128,-6,-3e-05
2129,2.129,-6,-3e-05
2130,2.13,-6,-3e-05
2131,2.131,-6,-3e-05
2132,2.132,-6,-3e-05
2133,2.133,-6,-3e-05
2134,2.134,-6,-3e-05
2135,2.135,-5,-2.5e-05
2136,2.136,-5,-2.5e-05
2137,2.137,-5,-2.5e-05
2138,2.138,-5,-2.5e-05
2139,2.139,-4,-2e-05
2140,2.14,-4,-2e-05
2141,2.141,-4,-2e-05
2142,2.142,-4,-2e-05
2143,2.143,-4,-2e-05
2144,2.144,-4,-2e-05
2145,2.145,-4,-2e-05
2146,2.146,-4,-2e-05
2147,2.147,-4,-2e-05
2148,2.148,-4,-2e-05
2149,2.149,-4,-2e-05
2150,2.15,-4,-2e-05
2151,2.151,-4,-2e-05
2152,2.152,-5,-2.5e-05
2153,2.153,-5,-2.5e-05
2154,2.154,-5,-2.5e-05
2155,2.155,-5,-2.5e-05
2156,2.156,-6,-3e-05
2157,2.157,-6,-3e-05
2158,2.158,-5,-2.5e-05
2159,2.159,-5,-2.5e-05
2160,2.16,-4,-2e-05
2161,2.161,-4,-2e-05
2162,2.162,-3,-1.5e-05
2163,2.163,-2,-1e-05
2164,2.164,-2,-1e-05
2165,2.165,-2,-1e-05
2166,2.166,-2,-1e-05
2167,2.167,-3,-1.5e-05
2168,2.168,-3,-1.5e-05
2169,2.169,-3,-1.5e-05
2170,2.17,-3,-1.5e-05
2171,2.171,-4,-2e-05
2172,2.172,-4,-2e-05
2173,2.173,-4,-2e-05
2174,2.174,-3,-1.5e-05
2175,2.175,-3,-1.5e-05
2176,2.176,-3,-1.5e-05
2177,2.177,-3,-1.5e-05
2178,2.178,-2,-1e-05
2179,2.179,-2,-1e-05
2180,2.18,-2,-1e-05
2181,2.181,-2,-1e-05
2182,2.182,-2,-1e-05
2183,2.183,-3,-1.5e-05
2184,2.184,-3,-1.5e-05
2185,2.185,-3,-1.5e-05
2186,2.186,-3,-1.5e-05
2187,2.187,-4,-2e-05
2188,2.188,-4,-2e-05
2189,2.189,-4,-2e-05
2190,2.19,-4,-2e-05
2191,2.191,-4,-2e-05
2192,2.192,-4,-2e-05
2193,2.193,-4,-2e-05
2194,2.194,-4,-2e-05
2195,2.195,-4,-2e-05
2196,2.196,-4,-2e-05
2197,2.197,-3,-1.5e-05
2198,2.198,-3,-1.5e-05
2199,2.199,-2,-1e-05
2200,2.2,-2,-1e-05
2201,2.201,-1,-5e-06
2202,2.202,-1,-5e-06
2203,2.203,0,0.0
2204,2.204,0,0.0
2205,2.205,-1,-5e-06
2206,2.206,-1,-5e-06
2207,2.207,-2,-1e-05
2208,2.208,-2,-1e-05
2209,2.209,-3,-1.5e-05
2210,2.21,-3,-1.5e-05
2211,2.211,-4,-2e-05
2212,2.212,-4,-2e-05
2213,2.213,-4,-2e-05
2214,2.214,-4,-2e-05
2215,2.215,-4,-2e-05
2216,2.216,-4,-2e-05
2217,2.217,-4,-2e-05
2218,2.218,-4,-2e-05
2219,2.219,-4,-2e-05
2220,2.22,-4,-2e-05
2221,2.221,-3,-1.5e-05
2222,2.222,-3,-1.5e-05
2223,2.223,-3,-1.5e-05
2224,2.224,-3,-1.5e-05
2225,2.225,-2,-1e-05
2226,2.226,-2,-1e-05
2227,2.227,-2,-1e-05
2228,2.228,-2,-1e-05
2229,2.229,-2,-1e-05
2230,2.23,-3,-1.5e-05
2231,2.231,-3,-1.5e-05
2232,2.232,-3,-1.5e-05
2233,2.233,-3,-1.5e-05
2234,2.234,-4,-2e-05
2235,2.235,-4,-2e-05
2236,2.236,-3,-1.5e-05
2237,2.237,-3,-1.5e-05
2238,2.238,-3,-1.5e-05
2239,2.239,-3,-1.5e-05
2240,2.24,-2,-1e-05
2241,2.241,-2,-1e-05
2242,2.242,-2,-1e-05
2243,2.243,-2,-1e-05
2244,2.244,-2,-1e-05
2245,2.245,-2,-1e-05
2246,2.246,-2,-1e-05
2247,2.247,-2,-1e-05
2248,2.248,-2,-1e-05
2249,2.249,-2,-1e-05
2250,2.25,-2,-1e-05
2251,2.251,-2,-1e-05
2252,2.252,-2,-1e-05
2253,2.253,-2,-1e-05
2254,2.254,-2,-1e-05
2255,2.255,-2,-1e-05
2256,2.256,-2,-1e-05
2257,2.257,-2,-1e-05
2258,2.258,-2,-1e-05
2259,2.259,-1,-5e-06
2260,2.26,-1,-5e-06
2261,2.261,0,0.0
2262,2.262,0,0.0
2263,2.263,1,5e-06
2264,2.264,1,5e-06
2265,2.265,2,1e-05
2266,2.266,2,1e-05
2267,2.267,2,1e-05
2268,2.268,1,5e-06
2269,2.269,1,5e-06
2270,2.27,0,0.0
2271,2.271,0,0.0
2272,2.272,-1,-5e-06
2273,2.273,-1,-5e-06
2274,2.274,-2,-1e-05
2275,2.275,-2,-1e-05
2276,2.276,-2,-1e-05
2277,2.277,-2,-1e-05
2278,2.278,-2,-1e-05
2279,2.279,-2,-1e-05
2280,2.28,-2,-1e-05
2281,2.281,-2,-1e-05
2282,2.282,-2,-1e-05
2283,2.283,-2,-1e-05
2284,2.284,-2,-1e-05
2285,2.285,-2,-1e-05
2286,2.286,-2,-1e-05
2287,2.287,-2,-1e-05
2288,2.288,-2,-1e-05
2289,2.289,-2,-1e-05
2290,2.29,-2,-1e-05
2291,2.291,-2,-1e-05
2292,2.292,-3,-1.5e-05
2293,2.293,-3,-1.5e-05
2294,2.294,-3,-1.5e-05
2295,2.295,-3,-1.5e-05
2296,2.296,-4,-2e-05
2297,2.297,-4,-2e-05
2298,2.298,-4,-2e-05
2299,2.299,-3,-1.5e-05
2300,2.3,-3,-1.5e-05
2301,2.301,-3,-1.5e-05
2302,2.302,-3,-1.5e-05
2303,2.303,-2,-1e-05
2304,2.304,-2,-1e-05
2305,2.305,-2,-1e-05
2306,2.306,-2,-1e-05
2307,2.307,-2,-1e-05
2308,2.308,-2,-1e-05
2309,2.309,-2,-1e-05
2310,2.31,-2,-1e-05
2311,2.311,-2,-1e-05
2312,2.312,-2,-1e-05
2313,2.313,-2,-1e-05
2314,2.314,-2,-1e-05
2315,2.315,-2,-1e-05
2316,2.316,-2,-1e-05
2317,2.317,-2,-1e-05
2318,2.318,-2,-1e-05
2319,2.319,-2,-1e-05
2320,2.32,-2,-1e-05
2321,2.321,-2,-1e-05
2322,2.322,-1,-5e-06
2323,2.323,-1,-5e-06
2324,2.324,0,0.0
2325,2.325,0,0.0
2326,2.326,1,5e-06
2327,2.327,1,5e-06
2328,2.328,2,1e-05
2329,2.329,2,1e-05
2330,2.33,1,5e-06
2331,2.331,1,5e-06
2332,2.332,0,0.0
2333,2.333,0,0.0
2334,2.334,-1,-5e-06
2335,2.335,-1,-5e-06
2336,2.336,-2,-1e-05
2337,2.337,-2,-1e-05
2338,2.338,-2,-1e-05
2339,2.339,-2,-1e-05
2340,2.34,-2,-1e-05
2341,2.341,-2,-1e-05
2342,2.342,-2,-1e-05
2343,2.343,-2,-1e-05
2344,2.344,-2,-1e-05
2345,2.345,-2,-1e-05
2346,2.346,-1,-5e-06
2347,2.347,-1,-5e-06
2348,2.348,-1,-5e-06
2349,2.349,-1,-5e-06
2350,2.35,0,0.0
2351,2.351,0,0.0
2352,2.352,0,0.0
2353,2.353,0,0.0
2354,2.354,0,0.0
2355,2.355,-1,-5e-06
2356,2.356,-1,-5e-06
2357,2.357,-1,-5e-06
2358,2.358,-1,-5e-06
2359,2.359,-2,-1e-05
2360,2.36,-2,-1e-05
2361,2.361,-1,-5e-06
2362,2.362,-1,-5e-06
2363,2.363,-1,-5e-06
2364,2.364,-1,-5e-06
2365,2.365,0,0.0
2366,2.366,0,0.0
2367,2.367,0,0.0
2368,2.368,0,0.0
2369,2.369,0,0.0
2370,2.37,0,0.0
2371,2.371,-1,-5e-06
2372,2.372,-1,-5e-06
2373,2.373,-1,-5e-06
2374,2.374,-1,-5e-06
2375,2.375,-2,-1e-05
2376,2.376,-2,-1e-05
2377,2.377,-2,-1e-05
2378,2.378,-2,-1e-05
2379,2.379,-2,-1e-05
2380,2.38,-2,-1e-05
2381,2.381,-2,-1e-05
2382,2.382,-2,-1e-05
2383,2.383,-2,-1e-05
2384,2.384,-1,-5e-06
2385,2.385,-1,-5e-06
2386,2.386,0,0.0
2387,2.387,0,0.0
2388,2.388,1,5e-06
2389,2.389,1,5e-06
2390,2.39,2,1e-05
2391,2.391,2,1e-05
2392,2.392,2,1e-05
2393,2.393,2,1e-05
2394,2.394,1,5e-06
2395,2.395,1,5e-06
2396,2.396,1,5e-06
2397,2.397,1,5e-06
2398,2.398,0,0.0
2399,2.399,0,0.0
2400,2.4,0,0.0
2401,2.401,0,0.0
2402,2.402,-1,-5e-06
2403,2.403,-1,-5e-06
2404,2.404,-1,-5e-06
2405,2.405,-1,-5e-06
2406,2.406,-2,-1e-05
2407,2.407,-1,-5e-06
2408,2.408,-1,-5e-06
2409,2.409,0,0.0
2410,2.41,1,5e-06
2411,2.411,2,1e-05
2412,2.412,2,1e-05
2413,2.413,3,1.5e-05
2414,2.414,4,2e-05
2415,2.415,4,2e-05
2416,2.416,3,1.5e-05
2417,2.417,3,1.5e-05
2418,2.418,2,1e-05
2419,2.419,2,1e-05
2420,2.42,1,5e-06
2421,2.421,1,5e-06
2422,2.422,0,0.0
2423,2.423,0,0.0
2424,2.424,0,0.0
2425,2.425,0,0.0
2426,2.426,0,0.0
2427,2.427,0,0.0
2428,2.428,0,0.0
2429,2.429,0,0.0
2430,2.43,0,0.0
2431,2.431,0,0.0
2432,2.432,0,0.0
2433,2.433,0,0.0
2434,2.434,0,0.0
2435,2.435,0,0.0
2436,2.436,0,0.0
2437,2.437,0,0.0
2438,2.438,0,0.0
2439,2.439,2,1e-05
2440,2.44,3,1.5e-05
2441,2.441,4,2e-05
2442,2.442,6,3e-05
2443,2.443,7,3.5e-05
2444,2.444,8,4e-05
2445,2.445,9,4.5e-05
2446,2.446,11,5.5e-05
2447,2.447,13,6.5e-05
2448,2.448,15,7.5e-05
2449,2.449,17,8.5e-05
2450,2.45,19,9.5e-05
2451,2.451,21,0.000105
2452,2.452,23,0.000115
2453,2.453,25,0.000125
2454,2.454,26,0.00013
2455,2.455,27,0.000135
2456,2.456,28,0.00014
2457,2.457,28,0.00014
2458,2.458,29,0.000145
2459,2.459,29,0.000145
2460,2.46,30,0.00015
2461,2.461,30,0.00015
2462,2.462,29,0.000145
2463,2.463,27,0.000135
2464,2.464,26,0.00013
2465,2.465,24,0.00012
2466,2.466,23,0.000115
2467,2.467,21,0.000105
2468,2.468,20,0.0001
2469,2.469,18,9e-05
2470,2.47,18,9e-05
2471,2.471,17,8.5e-05
2472,2.472,17,8.5e-05
2473,2.473,16,8e-05
2474,2.474,16,8e-05
2475,2.475,15,7.5e-05
2476,2.476,15,7.5e-05
2477,2.477,14,7e-05
2478,2.478,13,6.5e-05
2479,2.479,12,6e-05
2480,2.48,11,5.5e-05
2481,2.481,10,5e-05
2482,2.482,9,4.5e-05
2483,2.483,8,4e-05
2484,2.484,7,3.5e-05
2485,2.485,6,3e-05
2486,2.486,6,3e-05
2487,2.487,6,3e-05
2488,2.488,5,2.5e-05
2489,2.489,5,2.5e-05
2490,2.49,5,2.5e-05
2491,2.491,5,2.5e-05
2492,2.492,4,2e-05
2493,2.493,4,2e-05
2494,2.494,3,1.5e-05
2495,2.495,3,1.5e-05
2496,2.496,2,1e-05
2497,2.497,2,1e-05
2498,2.498,1,5e-06
2499,2.499,1,5e-06
2500,2.5,0,0.0
2501,2.501,0,0.0
2502,2.502,0,0.0
2503,2.503,-1,-5e-06
2504,2.504,-1,-5e-06
2505,2.505,-1,-5e-06
2506,2.506,-1,-5e-06
2507,2.507,-2,-1e-05
2508,2.508,-2,-1e-05
2509,2.509,-2,-1e-05
2510,2.51,-2,-1e-05
2511,2.511,-2,-1e-05
2512,2.512,-2,-1e-05
2513,2.513,-2,-1e-05
2514,2.514,-2,-1e-05
2515,2.515,-2,-1e-05
2516,2.516,-2,-1e-05
2517,2.517,-2,-1e-05
2518,2.518,-2,-1e-05
2519,2.519,-3,-1.5e-05
2520,2.52,-3,-1.5e-05
2521,2.521,-3,-1.5e-05
2522,2.522,-3,-1.5e-05
2523,2.523,-4,-2e-05
2524,2.524,-4,-2e-05
2525,2.525,-4,-2e-05
2526,2.526,-4,-2e-05
2527,2.527,-4,-2e-05
2528,2.528,-4,-2e-05
2529,2.529,-4,-2e-05
2530,2.53,-4,-2e-05
2531,2.531,-4,-2e-05
2532,2.532,-4,-2e-05
2533,2.533,-3,-1.5e-05
2534,2.534,-3,-1.5e-05
2535,2.535,-3,-1.5e-05
2536,2.536,-3,-1.5e-05
2537,2.537,-2,-1e-05
2538,2.538,-2,-1e-05
2539,2.539,-2,-1e-05
2540,2.54,-2,-1e-05
2541,2.541,-2,-1e-05
2542,2.542,-2,-1e-05
2543,2.543,-3,-1.5e-05
2544,2.544,-3,-1.5e-05
2545,2.545,-3,-1.5e-05
2546,2.546,-4,-2e-05
2547,2.547,-4,-2e-05
2548,2.548,-4,-2e-05
2549,2.549,-3,-1.5e-05
2550,2.55,-3,-1.5e-05
2551,2.551,-3,-1.5e-05
2552,2.552,-3,-1.5e-05
2553,2.553,-2,-1e-05
2554,2.554,-2,-1e-05
2555,2.555,-2,-1e-05
2556,2.556,-2,-1e-05
2557,2.557,-1,-5e-06
2558,2.558,-1,-5e-06
2559,2.559,-1,-5e-06
2560,2.56,-1,-5e-06
2561,2.561,0,0.0
2562,2.562,0,0.0
2563,2.563,0,0.0
2564,2.564,0,0.0
2565,2.565,1,5e-06
2566,2.566,1,5e-06
2567,2.567,1,5e-06
2568,2.568,2,1e-05
2569,2.569,2,1e-05
2570,2.57,2,1e-05
2571,2.571,2,1e-05
2572,2.572,3,1.5e-05
2573,2.573,3,1.5e-05
2574,2.574,4,2e-05
2575,2.575,4,2e-05
2576,2.576,5,2.5e-05
2577,2.577,5,2.5e-05
2578,2.578,6,3e-05
2579,2.579,4,2e-05
2580,2.58,1,5e-06
2581,2.581,-3,-1.5e-05
2582,2.582,-7,-3.5e-05
2583,2.583,-10,-5e-05
2584,2.584,-14,-7e-05
2585,2.585,-17,-8.5e-05
2586,2.586,-21,-0.000105
2587,2.587,-24,-0.00012
2588,2.588,-27,-0.000135
2589,2.589,-30,-0.00015
2590,2.59,-33,-0.000165
2591,2.591,-36,-0.00018
2592,2.592,-40,-0.0002
2593,2.593,-43,-0.000215
2594,2.594,-46,-0.00023
2595,2.595,-39,-0.000195
2596,2.596,-33,-0.000165
2597,2.597,-26,-0.00013
2598,2.598,-19,-9.5e-05
2599,2.599,-13,-6.5e-05
2600,2.6,-6,-3e-05
2601,2.601,0,0.0
2602,2.602,9,4.5e-05
2603,2.603,29,0.000145
2604,2.604,49,0.000245
2605,2.605,69,0.000345
2606,2.606,89,0.000445
2607,2.607,109,0.000545
2608,2.608,129,0.000645
2609,2.609,149,0.000745
2610,2.61,171,0.000855
2611,2.611,197,0.000985
2612,2.612,223,0.001115
2613,2.613,249,0.001245
2614,2.614,275,0.001375
2615,2.615,301,0.001505
2616,2.616,327,0.001635
2617,2.617,354,0.00177
2618,2.618,362,0.00181
2619,2.619,354,0.00177
2620,2.62,346,0.00173
2621,2.621,338,0.00169
2622,2.622,330,0.00165
2623,2.623,322,0.00161
2624,2.624,314,0.00157
2625,2.625,307,0.001535
2626,2.626,280,0.0014
2627,2.627,244,0.00122
2628,2.628,209,0.001045
2629,2.629,174,0.00087
2630,2.63,139,0.000695
2631,2.631,104,0.00052
2632,2.632,69,0.000345
2633,2.633,34,0.00017
2634,2.634,17,8.5e-05
2635,2.635,3,1.5e-05
2636,2.636,-12,-6e-05
2637,2.637,-27,-0.000135
2638,2.638,-41,-0.000205
2639,2.639,-56,-0.00028
2640,2.64,-70,-0.00035
2641,2.641,-84,-0.00042
2642,2.642,-82,-0.00041
2643,2.643,-80,-0.0004
2644,2.644,-78,-0.00039
2645,2.645,-75,-0.000375
2646,2.646,-73,-0.000365
2647,2.647,-71,-0.000355
2648,2.648,-69,-0.000345
2649,2.649,-67,-0.000335
2650,2.65,-62,-0.00031
2651,2.651,-57,-0.000285
2652,2.652,-52,-0.00026
2653,2.653,-47,-0.000235
2654,2.654,-42,-0.00021
2655,2.655,-37,-0.000185
2656,2.656,-33,-0.000165
2657,2.657,-28,-0.00014
2658,2.658,-25,-0.000125
2659,2.659,-22,-0.00011
2660,2.66,-18,-9e-05
2661,2.661,-15,-7.5e-05
2662,2.662,-12,-6e-05
2663,2.663,-8,-4e-05
2664,2.664,-5,-2.5e-05
2665,2.665,-4,-2e-05
2666,2.666,-4,-2e-05
2667,2.667,-4,-2e-05
2668,2.668,-4,-2e-05
2669,2.669,-4,-2e-05
2670,2.67,-4,-2e-05
2671,2.671,-4,-2e-05
2672,2.672,-4,-2e-05
2673,2.673,-4,-2e-05
2674,2.674,-4,-2e-05
2675,2.675,-4,-2e-05
2676,2.676,-4,-2e-05
2677,2.677,-4,-2e-05
2678,2.678,-4,-2e-05
2679,2.679,-4,-2e-05
2680,2.68,-4,-2e-05
2681,2.681,-4,-2e-05
2682,2.682,-5,-2.5e-05
2683,2.683,-5,-2.5e-05
2684,2.684,-6,-3e-05
2685,2.685,-6,-3e-05
2686,2.686,-7,-3.5e-05
2687,2.687,-7,-3.5e-05
2688,2.688,-8,-4e-05
2689,2.689,-8,-4e-05
2690,2.69,-7,-3.5e-05
2691,2.691,-7,-3.5e-05
2692,2.692,-7,-3.5e-05
2693,2.693,-6,-3e-05
2694,2.694,-6,-3e-05
2695,2.695,-6,-3e-05
2696,2.696,-6,-3e-05
2697,2.697,-5,-2.5e-05
2698,2.698,-5,-2.5e-05
2699,2.699,-5,-2.5e-05
2700,2.7,-5,-2.5e-05
2701,2.701,-4,-2e-05
2702,2.702,-4,-2e-05
2703,2.703,-4,-2e-05
2704,2.704,-4,-2e-05
2705,2.705,-4,-2e-05
2706,2.706,-4,-2e-05
2707,2.707,-5,-2.5e-05
2708,2.708,-5,-2.5e-05
2709,2.709,-5,-2.5e-05
2710,2.71,-6,-3e-05
2711,2.711,-6,-3e-05
2712,2.712,-6,-3e-05
2713,2.713,-6,-3e-05
2714,2.714,-6,-3e-05
2715,2.715,-6,-3e-05
2716,2.716,-6,-3e-05
2717,2.717,-6,-3e-05
2718,2.718,-6,-3e-05
2719,2.719,-6,-3e-05
2720,2.72,-6,-3e-05
2721,2.721,-5,-2.5e-05
2722,2.722,-5,-2.5e-05
2723,2.723,-5,-2.5e-05
2724,2.724,-5,-2.5e-05
2725,2.725,-4,-2e-05
2726,2.726,-4,-2e-05
2727,2.727,-4,-2e-05
2728,2.728,-4,-2e-05
2729,2.729,-4,-2e-05
2730,2.73,-4,-2e-05
2731,2.731,-4,-2e-05
2732,2.732,-4,-2e-05
2733,2.733,-4,-2e-05
2734,2.734,-4,-2e-05
2735,2.735,-4,-2e-05
2736,2.736,-3,-1.5e-05
2737,2.737,-3,-1.5e-05
2738,2.738,-3,-1.5e-05
2739,2.739,-3,-1.5e-05
2740,2.74,-2,-1e-05
2741,2.741,-2,-1e-05
2742,2.742,-2,-1e-05
2743,2.743,-2,-1e-05
2744,2.744,-2,-1e-05
2745,2.745,-2,-1e-05
2746,2.746,-2,-1e-05
2747,2.747,-2,-1e-05
2748,2.748,-2,-1e-05
2749,2.749,-2,-1e-05
2750,2.75,-2,-1e-05
2751,2.751,-2,-1e-05
2752,2.752,-1,-5e-06
2753,2.753,-1,-5e-06
2754,2.754,-1,-5e-06
2755,2.755,-1,-5e-06
2756,2.756,0,0.0
2757,2.757,0,0.0
2758,2.758,0,0.0
2759,2.759,0,0.0
2760,2.76,1,5e-06
2761,2.761,1,5e-06
2762,2.762,1,5e-06
2763,2.763,1,5e-06
2764,2.764,2,1e-05
2765,2.765,2,1e-05
2766,2.766,2,1e-05
2767,2.767,2,1e-05
2768,2.768,2,1e-05
2769,2.769,2,1e-05
2770,2.77,2,1e-05
2771,2.771,2,1e-05
2772,2.772,2,1e-05
2773,2.773,2,1e-05
2774,2.774,2,1e-05
2775,2.775,2,1e-05
2776,2.776,2,1e-05
2777,2.777,2,1e-05
2778,2.778,2,1e-05
2779,2.779,2,1e-05
2780,2.78,2,1e-05
2781,2.781,2,1e-05
2782,2.782,2,1e-05
2783,2.783,3,1.5e-05
2784,2.784,3,1.5e-05
2785,2.785,4,2e-05
2786,2.786,4,2e-05
2787,2.787,5,2.5e-05
2788,2.788,5,2.5e-05
2789,2.789,6,3e-05
2790,2.79,6,3e-05
2791,2.791,6,3e-05
2792,2.792,6,3e-05
2793,2.793,6,3e-05
2794,2.794,6,3e-05
2795,2.795,6,3e-05
2796,2.796,6,3e-05
2797,2.797,6,3e-05
2798,2.798,7,3.5e-05
2799,2.799,7,3.5e-05
2800,2.8,8,4e-05
2801,2.801,8,4e-05
2802,2.802,9,4.5e-05
2803,2.803,9,4.5e-05
2804,2.804,10,5e-05
2805,2.805,10,5e-05
2806,2.806,10,5e-05
2807,2.807,10,5e-05
2808,2.808,10,5e-05
2809,2.809,10,5e-05
2810,2.81,10,5e-05
2811,2.811,10,5e-05
2812,2.812,10,5e-05
2813,2.813,10,5e-05
2814,2.814,11,5.5e-05
2815,2.815,11,5.5e-05
2816,2.816,12,6e-05
2817,2.817,12,6e-05
2818,2.818,13,6.5e-05
2819,2.819,13,6.5e-05
2820,2.82,14,7e-05
2821,2.821,14,7e-05
2822,2.822,15,7.5e-05
2823,2.823,16,8e-05
2824,2.824,17,8.5e-05
2825,2.825,18,9e-05
2826,2.826,18,9e-05
2827,2.827,19,9.5e-05
2828,2.828,20,0.0001
2829,2.829,20,0.0001
2830,2.83,21,0.000105
2831,2.831,21,0.000105
2832,2.832,21,0.000105
2833,2.833,21,0.000105
2834,2.834,22,0.00011
2835,2.835,22,0.00011
2836,2.836,22,0.00011
2837,2.837,23,0.000115
2838,2.838,24,0.00012
2839,2.839,24,0.00012
2840,2.84,25,0.000125
2841,2.841,26,0.00013
2842,2.842,27,0.000135
2843,2.843,27,0.000135
2844,2.844,28,0.00014
2845,2.845,29,0.000145
2846,2.846,30,0.00015
2847,2.847,30,0.00015
2848,2.848,31,0.000155
2849,2.849,32,0.00016
2850,2.85,33,0.000165
2851,2.851,34,0.00017
2852,2.852,34,0.00017
2853,2.853,35,0.000175
2854,2.854,35,0.000175
2855,2.855,36,0.00018
2856,2.856,36,0.00018
2857,2.857,37,0.000185
2858,2.858,37,0.000185
2859,2.859,38,0.00019
2860,2.86,38,0.00019
2861,2.861,40,0.0002
2862,2.862,41,0.000205
2863,2.863,42,0.00021
2864,2.864,43,0.000215
2865,2.865,44,0.00022
2866,2.866,45,0.000225
2867,2.867,46,0.00023
2868,2.868,47,0.000235
2869,2.869,47,0.000235
2870,2.87,48,0.00024
2871,2.871,49,0.000245
2872,2.872,50,0.00025
2873,2.873,50,0.00025
2874,2.874,51,0.000255
2875,2.875,52,0.00026
2876,2.876,53,0.000265
2877,2.877,54,0.00027
2878,2.878,56,0.00028
2879,2.879,57,0.000285
2880,2.88,58,0.00029
2881,2.881,59,0.000295
2882,2.882,61,0.000305
2883,2.883,62,0.00031
2884,2.884,63,0.000315
2885,2.885,65,0.000325
2886,2.886,66,0.00033
2887,2.887,67,0.000335
2888,2.888,68,0.00034
2889,2.889,70,0.00035
2890,2.89,71,0.000355
2891,2.891,72,0.00036
2892,2.892,73,0.000365
2893,2.893,74,0.00037
2894,2.894,75,0.000375
2895,2.895,76,0.00038
2896,2.896,77,0.000385
2897,2.897,78,0.00039
2898,2.898,79,0.000395
2899,2.899,80,0.0004
2900,2.9,81,0.000405
2901,2.901,82,0.00041
2902,2.902,83,0.000415
2903,2.903,83,0.000415
2904,2.904,84,0.00042
2905,2.905,85,0.000425
2906,2.906,86,0.00043
2907,2.907,87,0.000435
2908,2.908,88,0.00044
2909,2.909,89,0.000445
2910,2.91,90,0.00045
2911,2.911,91,0.000455
2912,2.912,92,0.00046
2913,2.913,93,0.000465
2914,2.914,94,0.00047
2915,2.915,95,0.000475
2916,2.916,96,0.00048
2917,2.917,97,0.000485
2918,2.918,98,0.00049
2919,2.919,99,0.000495
2920,2.92,100,0.0005
2921,2.921,101,0.000505
2922,2.922,102,0.00051
2923,2.923,103,0.000515
2924,2.924,104,0.00052
2925,2.925,104,0.00052
2926,2.926,105,0.000525
2927,2.927,106,0.00053
2928,2.928,107,0.000535
2929,2.929,107,0.000535
2930,2.93,108,0.00054
2931,2.931,108,0.00054
2932,2.932,108,0.00054
2933,2.933,108,0.00054
2934,2.934,108,0.00054
2935,2.935,108,0.00054
2936,2.936,108,0.00054
2937,2.937,108,0.00054
2938,2.938,108,0.00054
2939,2.939,108,0.00054
2940,2.94,109,0.000545
2941,2.941,109,0.000545
2942,2.942,109,0.000545
2943,2.943,110,0.00055
2944,2.944,110,0.00055
2945,2.945,110,0.00055
2946,2.946,110,0.00055
2947,2.947,108,0.00054
2948,2.948,107,0.000535
2949,2.949,106,0.00053
2950,2.95,105,0.000525
2951,2.951,103,0.000515
2952,2.952,102,0.00051
2953,2.953,101,0.000505
2954,2.954,99,0.000495
2955,2.955,97,0.000485
2956,2.956,96,0.00048
2957,2.957,94,0.00047
2958,2.958,92,0.00046
2959,2.959,90,0.00045
2960,2.96,88,0.00044
2961,2.961,87,0.000435
2962,2.962,85,0.000425
2963,2.963,82,0.00041
2964,2.964,80,0.0004
2965,2.965,78,0.00039
2966,2.966,75,0.000375
2967,2.967,73,0.000365
2968,2.968,71,0.000355
2969,2.969,68,0.00034
2970,2.97,66,0.00033
2971,2.971,64,0.00032
2972,2.972,61,0.000305
2973,2.973,59,0.000295
2974,2.974,57,0.000285
2975,2.975,55,0.000275
2976,2.976,52,0.00026
2977,2.977,50,0.00025
2978,2.978,49,0.000245
2979,2.979,47,0.000235
2980,2.98,46,0.00023
2981,2.981,45,0.000225
2982,2.982,44,0.00022
2983,2.983,42,0.00021
2984,2.984,41,0.000205
2985,2.985,40,0.0002
2986,2.986,39,0.000195
2987,2.987,37,0.000185
2988,2.988,36,0.00018
2989,2.989,35,0.000175
2990,2.99,33,0.000165
2991,2.991,32,0.00016
2992,2.992,31,0.000155
2993,2.993,30,0.00015
2994,2.994,28,0.00014
2995,2.995,27,0.000135
2996,2.996,26,0.00013
2997,2.997,24,0.00012
2998,2.998,23,0.000115
2999,2.999,22,0.00011
3000,3.0,21,0.000105
3001,3.001,20,0.0001
3002,3.002,19,9.5e-05
3003,3.003,19,9.5e-05
3004,3.004,18,9e-05
3005,3.005,18,9e-05
3006,3.006,17,8.5e-05
3007,3.007,17,8.5e-05
3008,3.008,16,8e-05
3009,3.009,16,8e-05
3010,3.01,15,7.5e-05
3011,3.011,14,7e-05
3012,3.012,13,6.5e-05
3013,3.013,12,6e-05
3014,3.014,12,6e-05
3015,3.015,11,5.5e-05
3016,3.016,10,5e-05
3017,3.017,9,4.5e-05
3018,3.018,9,4.5e-05
3019,3.019,8,4e-05
3020,3.02,7,3.5e-05
3021,3.021,6,3e-05
3022,3.022,6,3e-05
3023,3.023,5,2.5e-05
3024,3.024,4,2e-05
3025,3.025,4,2e-05
3026,3.026,4,2e-05
3027,3.027,3,1.5e-05
3028,3.028,3,1.5e-05
3029,3.029,3,1.5e-05
3030,3.03,3,1.5e-05
3031,3.031,2,1e-05
3032,3.032,2,1e-05
3033,3.033,2,1e-05
3034,3.034,2,1e-05
3035,3.035,1,5e-06
3036,3.036,1,5e-06
3037,3.037,1,5e-06
3038,3.038,1,5e-06
3039,3.039,0,0.0
3040,3.04,0,0.0
3041,3.041,1,5e-06
3042,3.042,1,5e-06
3043,3.043,1,5e-06
3044,3.044,1,5e-06
3045,3.045,2,1e-05
3046,3.046,2,1e-05
3047,3.047,2,1e-05
3048,3.048,2,1e-05
3049,3.049,2,1e-05
3050,3.05,1,5e-06
3051,3.051,1,5e-06
3052,3.052,1,5e-06
3053,3.053,1,5e-06
3054,3.054,0,0.0
3055,3.055,0,0.0
3056,3.056,0,0.0
3057,3.057,0,0.0
3058,3.058,0,0.0
3059,3.059,0,0.0
3060,3.06,0,0.0
3061,3.061,0,0.0
3062,3.062,0,0.0
3063,3.063,0,0.0
3064,3.064,1,5e-06
3065,3.065,1,5e-06
3066,3.066,2,1e-05
3067,3.067,2,1e-05
3068,3.068,3,1.5e-05
3069,3.069,3,1.5e-05
3070,3.07,4,2e-05
3071,3.071,4,2e-05
3072,3.072,4,2e-05
3073,3.073,4,2e-05
3074,3.074,3,1.5e-05
3075,3.075,3,1.5e-05
3076,3.076,3,1.5e-05
3077,3.077,3,1.5e-05
3078,3.078,2,1e-05
3079,3.079,2,1e-05
3080,3.08,2,1e-05
3081,3.081,2,1e-05
3082,3.082,1,5e-06
3083,3.083,1,5e-06
3084,3.084,1,5e-06
3085,3.085,1,5e-06
3086,3.086,0,0.0
3087,3.087,0,0.0
3088,3.088,0,0.0
3089,3.089,-1,-5e-06
3090,3.09,-1,-5e-06
3091,3.091,-1,-5e-06
3092,3.092,-1,-5e-06
3093,3.093,-2,-1e-05
3094,3.094,-2,-1e-05
3095,3.095,-2,-1e-05
3096,3.096,-3,-1.5e-05
3097,3.097,-3,-1.5e-05
3098,3.098,-4,-2e-05
3099,3.099,-4,-2e-05
3100,3.1,-5,-2.5e-05
3101,3.101,-5,-2.5e-05
3102,3.102,-6,-3e-05
3103,3.103,-6,-3e-05
3104,3.104,-5,-2.5e-05
3105,3.105,-5,-2.5e-05
3106,3.106,-5,-2.5e-05
3107,3.107,-5,-2.5e-05
3108,3.108,-4,-2e-05
3109,3.109,-4,-2e-05
3110,3.11,-4,-2e-05
3111,3.111,-4,-2e-05
3112,3.112,-4,-2e-05
3113,3.113,-4,-2e-05
3114,3.114,-4,-2e-05
3115,3.115,-4,-2e-05
3116,3.116,-4,-2e-05
3117,3.117,-4,-2e-05
3118,3.118,-4,-2e-05
3119,3.119,-4,-2e-05
3120,3.12,-4,-2e-05
3121,3.121,-4,-2e-05
3122,3.122,-4,-2e-05
3123,3.123,-4,-2e-05
3124,3.124,-4,-2e-05
3125,3.125,-4,-2e-05
3126,3.126,-4,-2e-05
3127,3.127,-3,-1.5e-05
3128,3.128,-3,-1.5e-05
3129,3.129,-3,-1.5e-05
3130,3.13,-3,-1.5e-05
3131,3.131,-2,-1e-05
3132,3.132,-2,-1e-05
3133,3.133,-2,-1e-05
3134,3.134,-2,-1e-05
3135,3.135,-3,-1.5e-05
3136,3.136,-3,-1.5e-05
3137,3.137,-4,-2e-05
3138,3.138,-4,-2e-05
3139,3.139,-5,-2.5e-05
3140,3.14,-5,-2.5e-05
3141,3.141,-6,-3e-05
3142,3.142,-6,-3e-05
3143,3.143,-5,-2.5e-05
3144,3.144,-5,-2.5e-05
3145,3.145,-5,-2.5e-05
3146,3.146,-5,-2.5e-05
3147,3.147,-4,-2e-05
3148,3.148,-4,-2e-05
3149,3.149,-4,-2e-05
3150,3.15,-4,-2e-05
3151,3.151,-5,-2.5e-05
3152,3.152,-5,-2.5e-05
3153,3.153,-6,-3e-05
3154,3.154,-6,-3e-05
3155,3.155,-7,-3.5e-05
3156,3.156,-8,-4e-05
3157,3.157,-8,-4e-05
3158,3.158,-8,-4e-05
3159,3.159,-8,-4e-05
3160,3.16,-8,-4e-05
3161,3.161,-8,-4e-05
3162,3.162,-8,-4e-05
3163,3.163,-8,-4e-05
3164,3.164,-8,-4e-05
3165,3.165,-8,-4e-05
3166,3.166,-8,-4e-05
3167,3.167,-8,-4e-05
3168,3.168,-8,-4e-05
3169,3.169,-8,-4e-05
3170,3.17,-8,-4e-05
3171,3.171,-8,-4e-05
3172,3.172,-8,-4e-05
3173,3.173,-8,-4e-05
3174,3.174,-7,-3.5e-05
3175,3.175,-7,-3.5e-05
3176,3.176,-7,-3.5e-05
3177,3.177,-7,-3.5e-05
3178,3.178,-6,-3e-05
3179,3.179,-6,-3e-05
3180,3.18,-6,-3e-05
3181,3.181,-6,-3e-05
3182,3.182,-6,-3e-05
3183,3.183,-7,-3.5e-05
3184,3.184,-7,-3.5e-05
3185,3.185,-7,-3.5e-05
3186,3.186,-7,-3.5e-05
3187,3.187,-8,-4e-05
3188,3.188,-8,-4e-05
3189,3.189,-8,-4e-05
3190,3.19,-7,-3.5e-05
3191,3.191,-7,-3.5e-05
3192,3.192,-7,-3.5e-05
3193,3.193,-7,-3.5e-05
3194,3.194,-6,-3e-05
3195,3.195,-6,-3e-05
3196,3.196,-6,-3e-05
3197,3.197,-6,-3e-05
3198,3.198,-6,-3e-05
3199,3.199,-7,-3.5e-05
3200,3.2,-7,-3.5e-05
3201,3.201,-7,-3.5e-05
3202,3.202,-7,-3.5e-05
3203,3.203,-8,-4e-05
3204,3.204,-8,-4e-05
3205,3.205,-8,-4e-05
3206,3.206,-8,-4e-05
3207,3.207,-9,-4.5e-05
3208,3.208,-9,-4.5e-05
3209,3.209,-9,-4.5e-05
3210,3.21,-9,-4.5e-05
3211,3.211,-10,-5e-05
3212,3.212,-10,-5e-05
3213,3.213,-9,-4.5e-05
3214,3.214,-9,-4.5e-05
3215,3.215,-9,-4.5e-05
3216,3.216,-9,-4.5e-05
3217,3.217,-8,-4e-05
3218,3.218,-8,-4e-05
3219,3.219,-8,-4e-05
3220,3.22,-8,-4e-05
3221,3.221,-9,-4.5e-05
3222,3.222,-10,-5e-05
3223,3.223,-11,-5.5e-05
3224,3.224,-12,-6e-05
3225,3.225,-12,-6e-05
3226,3.226,-13,-6.5e-05
3227,3.227,-14,-7e-05
3228,3.228,-14,-7e-05
3229,3.229,-13,-6.5e-05
3230,3.23,-13,-6.5e-05
3231,3.231,-13,-6.5e-05
3232,3.232,-13,-6.5e-05
3233,3.233,-12,-6e-05
3234,3.234,-12,-6e-05
3235,3.235,-12,-6e-05
3236,3.236,-11,-5.5e-05
3237,3.237,-11,-5.5e-05
3238,3.238,-11,-5.5e-05
3239,3.239,-11,-5.5e-05
3240,3.24,-10,-5e-05
3241,3.241,-10,-5e-05
3242,3.242,-10,-5e-05
3243,3.243,-10,-5e-05
3244,3.244,-10,-5e-05
3245,3.245,-10,-5e-05
3246,3.246,-10,-5e-05
3247,3.247,-10,-5e-05
3248,3.248,-10,-5e-05
3249,3.249,-10,-5e-05
3250,3.25,-10,-5e-05
3251,3.251,-10,-5e-05
3252,3.252,-9,-4.5e-05
3253,3.253,-9,-4.5e-05
3254,3.254,-9,-4.5e-05
3255,3.255,-9,-4.5e-05
3256,3.256,-8,-4e-05
3257,3.257,-8,-4e-05
3258,3.258,-8,-4e-05
3259,3.259,-8,-4e-05
3260,3.26,-9,-4.5e-05
3261,3.261,-9,-4.5e-05
3262,3.262,-10,-5e-05
3263,3.263,-10,-5e-05
3264,3.264,-11,-5.5e-05
3265,3.265,-11,-5.5e-05
3266,3.266,-12,-6e-05
3267,3.267,-12,-6e-05
3268,3.268,-11,-5.5e-05
3269,3.269,-11,-5.5e-05
3270,3.27,-11,-5.5e-05
3271,3.271,-11,-5.5e-05
3272,3.272,-10,-5e-05
3273,3.273,-10,-5e-05
3274,3.274,-10,-5e-05
3275,3.275,-10,-5e-05
3276,3.276,-10,-5e-05
3277,3.277,-11,-5.5e-05
3278,3.278,-11,-5.5e-05
3279,3.279,-11,-5.5e-05
3280,3.28,-11,-5.5e-05
3281,3.281,-12,-6e-05
3282,3.282,-12,-6e-05
3283,3.283,-12,-6e-05
3284,3.284,-12,-6e-05
3285,3.285,-12,-6e-05
3286,3.286,-12,-6e-05
3287,3.287,-12,-6e-05
3288,3.288,-12,-6e-05
3289,3.289,-12,-6e-05
3290,3.29,-12,-6e-05
3291,3.291,-12,-6e-05
3292,3.292,-12,-6e-05
3293,3.293,-12,-6e-05
3294,3.294,-12,-6e-05
3295,3.295,-12,-6e-05
3296,3.296,-12,-6e-05
3297,3.297,-12,-6e-05
3298,3.298,-12,-6e-05
3299,3.299,-11,-5.5e-05
3300,3.3,-11,-5.5e-05
3301,3.301,-11,-5.5e-05
3302,3.302,-11,-5.5e-05
3303,3.303,-10,-5e-05
3304,3.304,-10,-5e-05
3305,3.305,-10,-5e-05
3306,3.306,-10,-5e-05
3307,3.307,-10,-5e-05
3308,3.308,-11,-5.5e-05
3309,3.309,-11,-5.5e-05
3310,3.31,-11,-5.5e-05
3311,3.311,-11,-5.5e-05
3312,3.312,-12,-6e-05
3313,3.313,-12,-6e-05
3314,3.314,-12,-6e-05
3315,3.315,-12,-6e-05
3316,3.316,-12,-6e-05
3317,3.317,-12,-6e-05
3318,3.318,-12,-6e-05
3319,3.319,-12,-6e-05
3320,3.32,-12,-6e-05
3321,3.321,-12,-6e-05
3322,3.322,-11,-5.5e-05
3323,3.323,-11,-5.5e-05
3324,3.324,-10,-5e-05
3325,3.325,-10,-5e-05
3326,3.326,-9,-4.5e-05
3327,3.327,-9,-4.5e-05
3328,3.328,-8,-4e-05
3329,3.329,-8,-4e-05
3330,3.33,-8,-4e-05
3331,3.331,-8,-4e-05
3332,3.332,-9,-4.5e-05
3333,3.333,-9,-4.5e-05
3334,3.334,-9,-4.5e-05
3335,3.335,-9,-4.5e-05
3336,3.336,-10,-5e-05
3337,3.337,-10,-5e-05
3338,3.338,-10,-5e-05
3339,3.339,-10,-5e-05
3340,3.34,-10,-5e-05
3341,3.341,-10,-5e-05
3342,3.342,-10,-5e-05
3343,3.343,-10,-5e-05
3344,3.344,-10,-5e-05
3345,3.345,-10,-5e-05
3346,3.346,-10,-5e-05
3347,3.347,-10,-5e-05
3348,3.348,-10,-5e-05
3349,3.349,-10,-5e-05
3350,3.35,-10,-5e-05
3351,3.351,-10,-5e-05
3352,3.352,-10,-5e-05
3353,3.353,-10,-5e-05
3354,3.354,-9,-4.5e-05
3355,3.355,-9,-4.5e-05
3356,3.356,-9,-4.5e-05
3357,3.357,-9,-4.5e-05
3358,3.358,-8,-4e-05
3359,3.359,-8,-4e-05
3360,3.36,-8,-4e-05
3361,3.361,-8,-4e-05
3362,3.362,-8,-4e-05
3363,3.363,-9,-4.5e-05
3364,3.364,-9,-4.5e-05
3365,3.365,-9,-4.5e-05
3366,3.366,-9,-4.5e-05
3367,3.367,-10,-5e-05
3368,3.368,-10,-5e-05
3369,3.369,-9,-4.5e-05
3370,3.37,-9,-4.5e-05
3371,3.371,-8,-4e-05
3372,3.372,-8,-4e-05
3373,3.373,-7,-3.5e-05
3374,3.374,-7,-3.5e-05
3375,3.375,-6,-3e-05
3376,3.376,-6,-3e-05
3377,3.377,-6,-3e-05
3378,3.378,-6,-3e-05
3379,3.379,-6,-3e-05
3380,3.38,-6,-3e-05
3381,3.381,-6,-3e-05
3382,3.382,-6,-3e-05
3383,3.383,-6,-3e-05
3384,3.384,-6,-3e-05
3385,3.385,-6,-3e-05
3386,3.386,-6,-3e-05
3387,3.387,-6,-3e-05
3388,3.388,-6,-3e-05
3389,3.389,-6,-3e-05
3390,3.39,-6,-3e-05
3391,3.391,-6,-3e-05
3392,3.392,-6,-3e-05
3393,3.393,-6,-3e-05
3394,3.394,-6,-3e-05
3395,3.395,-6,-3e-05
3396,3.396,-6,-3e-05
3397,3.397,-6,-3e-05
3398,3.398,-6,-3e-05
3399,3.399,-6,-3e-05
3400,3.4,-6,-3e-05
3401,3.401,-6,-3e-05
3402,3.402,-6,-3e-05
3403,3.403,-6,-3e-05
3404,3.404,-6,-3e-05
3405,3.405,-6,-3e-05
3406,3.406,-6,-3e-05
3407,3.407,-6,-3e-05
3408,3.408,-5,-2.5e-05
3409,3.409,-5,-2.5e-05
3410,3.41,-5,-2.5e-05
3411,3.411,-5,-2.5e-05
3412,3.412,-4,-2e-05
3413,3.413,-4,-2e-05
3414,3.414,-4,-2e-05
3415,3.415,-4,-2e-05
3416,3.416,-4,-2e-05
3417,3.417,-4,-2e-05
3418,3.418,-5,-2.5e-05
3419,3.419,-5,-2.5e-05
3420,3.42,-5,-2.5e-05
3421,3.421,-5,-2.5e-05
3422,3.422,-6,-3e-05
3423,3.423,-6,-3e-05
3424,3.424,-6,-3e-05
3425,3.425,-6,-3e-05
3426,3.426,-6,-3e-05
3427,3.427,-6,-3e-05
3428,3.428,-6,-3e-05
3429,3.429,-6,-3e-05
3430,3.43,-6,-3e-05
3431,3.431,-6,-3e-05
3432,3.432,-5,-2.5e-05
3433,3.433,-5,-2.5e-05
3434,3.434,-5,-2.5e-05
3435,3.435,-5,-2.5e-05
3436,3.436,-4,-2e-05
3437,3.437,-4,-2e-05
3438,3.438,-4,-2e-05
3439,3.439,-4,-2e-05
3440,3.44,-3,-1.5e-05
3441,3.441,-3,-1.5e-05
3442,3.442,-3,-1.5e-05
3443,3.443,-3,-1.5e-05
3444,3.444,-2,-1e-05
3445,3.445,-2,-1e-05
3446,3.446,-2,-1e-05
3447,3.447,-1,-5e-06
3448,3.448,-1,-5e-06
3449,3.449,-1,-5e-06
3450,3.45,-1,-5e-06
3451,3.451,0,0.0
3452,3.452,0,0.0
3453,3.453,0,0.0
3454,3.454,0,0.0
3455,3.455,-1,-5e-06
3456,3.456,-1,-5e-06
3457,3.457,-2,-1e-05
3458,3.458,-2,-1e-05
3459,3.459,-3,-1.5e-05
3460,3.46,-3,-1.5e-05
3461,3.461,-4,-2e-05
3462,3.462,-4,-2e-05
3463,3.463,-4,-2e-05
3464,3.464,-5,-2.5e-05
3465,3.465,-5,-2.5e-05
3466,3.466,-5,-2.5e-05
3467,3.467,-5,-2.5e-05
3468,3.468,-6,-3e-05
3469,3.469,-6,-3e-05
3470,3.47,-5,-2.5e-05
3471,3.471,-5,-2.5e-05
3472,3.472,-4,-2e-05
3473,3.473,-4,-2e-05
3474,3.474,-3,-1.5e-05
3475,3.475,-3,-1.5e-05
3476,3.476,-2,-1e-05
3477,3.477,-2,-1e-05
3478,3.478,-2,-1e-05
3479,3.479,-2,-1e-05
3480,3.48,-2,-1e-05
3481,3.481,-2,-1e-05
3482,3.482,-2,-1e-05
3483,3.483,-2,-1e-05
3484,3.484,-2,-1e-05
3485,3.485,-2,-1e-05
3486,3.486,-2,-1e-05
3487,3.487,-2,-1e-05
3488,3.488,-2,-1e-05
3489,3.489,-2,-1e-05
3490,3.49,-2,-1e-05
3491,3.491,-2,-1e-05
3492,3.492,-2,-1e-05
3493,3.493,-2,-1e-05
3494,3.494,-2,-1e-05
3495,3.495,-2,-1e-05
3496,3.496,-3,-1.5e-05
3497,3.497,-3,-1.5e-05
3498,3.498,-3,-1.5e-05
3499,3.499,-3,-1.5e-05
3500,3.5,-4,-2e-05
3501,3.501,-4,-2e-05
3502,3.502,-3,-1.5e-05
3503,3.503,-3,-1.5e-05
3504,3.504,-3,-1.5e-05
3505,3.505,-3,-1.5e-05
3506,3.506,-2,-1e-05
3507,3.507,-2,-1e-05
3508,3.508,-2,-1e-05
3509,3.509,-2,-1e-05
3510,3.51,-1,-5e-06
3511,3.511,-1,-5e-06
3512,3.512,-1,-5e-06
3513,3.513,-1,-5e-06
3514,3.514,0,0.0
3515,3.515,0,0.0
3516,3.516,0,0.0
3517,3.517,0,0.0
3518,3.518,1,5e-06
3519,3.519,1,5e-06
3520,3.52,1,5e-06
3521,3.521,1,5e-06
3522,3.522,2,1e-05
3523,3.523,2,1e-05
3524,3.524,2,1e-05
3525,3.525,2,1e-05
3526,3.526,2,1e-05
3527,3.527,1,5e-06
3528,3.528,1,5e-06
3529,3.529,1,5e-06
3530,3.53,1,5e-06
3531,3.531,0,0.0
3532,3.532,0,0.0
3533,3.533,0,0.0
3534,3.534,0,0.0
3535,3.535,0,0.0
3536,3.536,0,0.0
3537,3.537,0,0.0
3538,3.538,0,0.0
3539,3.539,0,0.0
3540,3.54,0,0.0
3541,3.541,0,0.0
3542,3.542,0,0.0
3543,3.543,-1,-5e-06
3544,3.544,-1,-5e-06
3545,3.545,-1,-5e-06
3546,3.546,-1,-5e-06
3547,3.547,-2,-1e-05
3548,3.548,-2,-1e-05
3549,3.549,-1,-5e-06
3550,3.55,-1,-5e-06
3551,3.551,-1,-5e-06
3552,3.552,-1,-5e-06
3553,3.553,0,0.0
3554,3.554,0,0.0
3555,3.555,0,0.0
3556,3.556,0,0.0
3557,3.557,0,0.0
3558,3.558,0,0.0
3559,3.559,0,0.0
3560,3.56,0,0.0
3561,3.561,0,0.0
3562,3.562,0,0.0
3563,3.563,0,0.0
3564,3.564,0,0.0
3565,3.565,0,0.0
3566,3.566,-1,-5e-06
3567,3.567,-1,-5e-06
3568,3.568,-1,-5e-06
3569,3.569,-1,-5e-06
3570,3.57,-2,-1e-05
3571,3.571,-2,-1e-05
3572,3.572,-1,-5e-06
3573,3.573,0,0.0
3574,3.574,1,5e-06
3575,3.575,1,5e-06
3576,3.576,2,1e-05
3577,3.577,3,1.5e-05
3578,3.578,4,2e-05
3579,3.579,4,2e-05
3580,3.58,4,2e-05
3581,3.581,4,2e-05
3582,3.582,3,1.5e-05
3583,3.583,3,1.5e-05
3584,3.584,3,1.5e-05
3585,3.585,3,1.5e-05
3586,3.586,2,1e-05
3587,3.587,2,1e-05
3588,3.588,2,1e-05
3589,3.589,2,1e-05
3590,3.59,1,5e-06
3591,3.591,1,5e-06
3592,3.592,1,5e-06
3593,3.593,0,0.0
3594,3.594,0,0.0
3595,3.595,0,0.0
3596,3.596,1,5e-06
3597,3.597,1,5e-06
3598,3.598,1,5e-06
3599,3.599,1,5e-06
3600,3.6,2,1e-05
3601,3.601,2,1e-05
3602,3.602,2,1e-05
3603,3.603,2,1e-05
3604,3.604,1,5e-06
3605,3.605,1,5e-06
3606,3.606,0,0.0
3607,3.607,0,0.0
3608,3.608,-1,-5e-06
3609,3.609,-1,-5e-06
3610,3.61,-2,-1e-05
3611,3.611,-1,-5e-06
3612,3.612,-1,-5e-06
3613,3.613,0,0.0
3614,3.614,0,0.0
3615,3.615,1,5e-06
3616,3.616,1,5e-06
3617,3.617,2,1e-05
3618,3.618,2,1e-05
3619,3.619,3,1.5e-05
3620,3.62,3,1.5e-05
3621,3.621,3,1.5e-05
3622,3.622,3,1.5e-05
3623,3.623,4,2e-05
3624,3.624,4,2e-05
3625,3.625,4,2e-05
3626,3.626,4,2e-05
3627,3.627,4,2e-05
3628,3.628,4,2e-05
3629,3.629,4,2e-05
3630,3.63,4,2e-05
3631,3.631,4,2e-05
3632,3.632,4,2e-05
3633,3.633,4,2e-05
3634,3.634,4,2e-05
3635,3.635,5,2.5e-05
3636,3.636,5,2.5e-05
3637,3.637,5,2.5e-05
3638,3.638,5,2.5e-05
3639,3.639,6,3e-05
3640,3.64,6,3e-05
3641,3.641,6,3e-05
3642,3.642,6,3e-05
3643,3.643,6,3e-05
3644,3.644,5,2.5e-05
3645,3.645,5,2.5e-05
3646,3.646,5,2.5e-05
3647,3.647,5,2.5e-05
3648,3.648,4,2e-05
3649,3.649,4,2e-05
3650,3.65,4,2e-05
3651,3.651,3,1.5e-05
3652,3.652,3,1.5e-05
3653,3.653,2,1e-05
3654,3.654,2,1e-05
3655,3.655,1,5e-06
3656,3.656,1,5e-06
3657,3.657,0,0.0
3658,3.658,1,5e-06
3659,3.659,1,5e-06
3660,3.66,1,5e-06
3661,3.661,1,5e-06
3662,3.662,2,1e-05
3663,3.663,2,1e-05
3664,3.664,2,1e-05
3665,3.665,3,1.5e-05
3666,3.666,3,1.5e-05
3667,3.667,4,2e-05
3668,3.668,5,2.5e-05
3669,3.669,6,3e-05
3670,3.67,6,3e-05
3671,3.671,7,3.5e-05
3672,3.672,8,4e-05
3673,3.673,9,4.5e-05
3674,3.674,11,5.5e-05
3675,3.675,13,6.5e-05
3676,3.676,15,7.5e-05
3677,3.677,17,8.5e-05
3678,3.678,18,9e-05
3679,3.679,20,0.0001
3680,3.68,22,0.00011
3681,3.681,24,0.00012
3682,3.682,25,0.000125
3683,3.683,27,0.000135
3684,3.684,28,0.00014
3685,3.685,30,0.00015
3686,3.686,31,0.000155
3687,3.687,33,0.000165
3688,3.688,34,0.00017
3689,3.689,34,0.00017
3690,3.69,33,0.000165
3691,3.691,33,0.000165
3692,3.692,32,0.00016
3693,3.693,32,0.00016
3694,3.694,31,0.000155
3695,3.695,31,0.000155
3696,3.696,30,0.00015
3697,3.697,29,0.000145
3698,3.698,28,0.00014
3699,3.699,27,0.000135
3700,3.7,26,0.00013
3701,3.701,25,0.000125
3702,3.702,24,0.00012
3703,3.703,23,0.000115
3704,3.704,22,0.00011
3705,3.705,21,0.000105
3706,3.706,20,0.0001
3707,3.707,19,9.5e-05
3708,3.708,18,9e-05
3709,3.709,17,8.5e-05
3710,3.71,16,8e-05
3711,3.711,15,7.5e-05
3712,3.712,14,7e-05
3713,3.713,13,6.5e-05
3714,3.714,12,6e-05
3715,3.715,11,5.5e-05
3716,3.716,11,5.5e-05
3717,3.717,10,5e-05
3718,3.718,9,4.5e-05
3719,3.719,8,4e-05
3720,3.72,8,4e-05
3721,3.721,7,3.5e-05
3722,3.722,7,3.5e-05
3723,3.723,6,3e-05
3724,3.724,6,3e-05
3725,3.725,5,2.5e-05
3726,3.726,5,2.5e-05
3727,3.727,4,2e-05
3728,3.728,3,1.5e-05
3729,3.729,2,1e-05
3730,3.73,1,5e-06
3731,3.731,0,0.0
3732,3.732,-1,-5e-06
3733,3.733,-2,-1e-05
3734,3.734,-3,-1.5e-05
3735,3.735,-4,-2e-05
3736,3.736,-3,-1.5e-05
3737,3.737,-3,-1.5e-05
3738,3.738,-2,-1e-05
3739,3.739,-2,-1e-05
3740,3.74,-1,-5e-06
3741,3.741,-1,-5e-06
3742,3.742,0,0.0
3743,3.743,0,0.0
3744,3.744,1,5e-06
3745,3.745,1,5e-06
3746,3.746,1,5e-06
3747,3.747,1,5e-06
3748,3.748,2,1e-05
3749,3.749,2,1e-05
3750,3.75,2,1e-05
3751,3.751,2,1e-05
3752,3.752,2,1e-05
3753,3.753,2,1e-05
3754,3.754,2,1e-05
3755,3.755,2,1e-05
3756,3.756,2,1e-05
3757,3.757,2,1e-05
3758,3.758,2,1e-05
3759,3.759,2,1e-05
3760,3.76,3,1.5e-05
3761,3.761,3,1.5e-05
3762,3.762,3,1.5e-05
3763,3.763,3,1.5e-05
3764,3.764,4,2e-05
3765,3.765,4,2e-05
3766,3.766,4,2e-05
3767,3.767,4,2e-05
3768,3.768,4,2e-05
3769,3.769,3,1.5e-05
3770,3.77,3,1.5e-05
3771,3.771,3,1.5e-05
3772,3.772,3,1.5e-05
3773,3.773,2,1e-05
3774,3.774,2,1e-05
3775,3.775,2,1e-05
3776,3.776,2,1e-05
3777,3.777,1,5e-06
3778,3.778,1,5e-06
3779,3.779,1,5e-06
3780,3.78,1,5e-06
3781,3.781,0,0.0
3782,3.782,0,0.0
3783,3.783,1,5e-06
3784,3.784,1,5e-06
3785,3.785,1,5e-06
3786,3.786,1,5e-06
3787,3.787,2,1e-05
3788,3.788,2,1e-05
3789,3.789,2,1e-05
3790,3.79,2,1e-05
3791,3.791,1,5e-06
3792,3.792,0,0.0
3793,3.793,-1,-5e-06
3794,3.794,-1,-5e-06
3795,3.795,-2,-1e-05
3796,3.796,-3,-1.5e-05
3797,3.797,-4,-2e-05
3798,3.798,-3,-1.5e-05
3799,3.799,-2,-1e-05
3800,3.8,-1,-5e-06
3801,3.801,0,0.0
3802,3.802,1,5e-06
3803,3.803,2,1e-05
3804,3.804,3,1.5e-05
3805,3.805,4,2e-05
3806,3.806,5,2.5e-05
3807,3.807,5,2.5e-05
3808,3.808,6,3e-05
3809,3.809,6,3e-05
3810,3.81,7,3.5e-05
3811,3.811,7,3.5e-05
3812,3.812,8,4e-05
3813,3.813,8,4e-05
3814,3.814,4,2e-05
3815,3.815,0,0.0
3816,3.816,-4,-2e-05
3817,3.817,-8,-4e-05
3818,3.818,-13,-6.5e-05
3819,3.819,-17,-8.5e-05
3820,3.82,-21,-0.000105
3821,3.821,-24,-0.00012
3822,3.822,-25,-0.000125
3823,3.823,-27,-0.000135
3824,3.824,-28,-0.00014
3825,3.825,-29,-0.000145
3826,3.826,-31,-0.000155
3827,3.827,-32,-0.00016
3828,3.828,-33,-0.000165
3829,3.829,-30,-0.00015
3830,3.83,-21,-0.000105
3831,3.831,-11,-5.5e-05
3832,3.832,-2,-1e-05
3833,3.833,7,3.5e-05
3834,3.834,16,8e-05
3835,3.835,26,0.00013
3836,3.836,35,0.000175
3837,3.837,54,0.00027
3838,3.838,79,0.000395
3839,3.839,103,0.000515
3840,3.84,128,0.00064
3841,3.841,153,0.000765
3842,3.842,178,0.00089
3843,3.843,203,0.001015
3844,3.844,228,0.00114
3845,3.845,252,0.00126
3846,3.846,277,0.001385
3847,3.847,301,0.001505
3848,3.848,326,0.00163
3849,3.849,350,0.00175
3850,3.85,375,0.001875
3851,3.851,400,0.002
3852,3.852,424,0.00212
3853,3.853,391,0.001955
3854,3.854,358,0.00179
3855,3.855,325,0.001625
3856,3.856,292,0.00146
3857,3.857,259,0.001295
3858,3.858,226,0.00113
3859,3.859,193,0.000965
3860,3.86,161,0.000805
3861,3.861,134,0.00067
3862,3.862,107,0.000535
3863,3.863,81,0.000405
3864,3.864,54,0.00027
3865,3.865,27,0.000135
3866,3.866,0,0.0
3867,3.867,-27,-0.000135
3868,3.868,-45,-0.000225
3869,3.869,-50,-0.00025
3870,3.87,-54,-0.00027
3871,3.871,-58,-0.00029
3872,3.872,-63,-0.000315
3873,3.873,-67,-0.000335
3874,3.874,-72,-0.00036
3875,3.875,-76,-0.00038
3876,3.876,-75,-0.000375
3877,3.877,-71,-0.000355
3878,3.878,-67,-0.000335
3879,3.879,-62,-0.00031
3880,3.88,-58,-0.00029
3881,3.881,-54,-0.00027
3882,3.882,-49,-0.000245
3883,3.883,-45,-0.000225
3884,3.884,-40,-0.0002
3885,3.885,-35,-0.000175
3886,3.886,-30,-0.00015
3887,3.887,-26,-0.00013
3888,3.888,-21,-0.000105
3889,3.889,-16,-8e-05
3890,3.89,-11,-5.5e-05
3891,3.891,-6,-3e-05
3892,3.892,-4,-2e-05
3893,3.893,-3,-1.5e-05
3894,3.894,-1,-5e-06
3895,3.895,0,0.0
3896,3.896,2,1e-05
3897,3.897,3,1.5e-05
3898,3.898,5,2.5e-05
3899,3.899,6,3e-05
3900,3.9,5,2.5e-05
3901,3.901,5,2.5e-05
3902,3.902,4,2e-05
3903,3.903,3,1.5e-05
3904,3.904,2,1e-05
3905,3.905,1,5e-06
3906,3.906,1,5e-06
3907,3.907,0,0.0
3908,3.908,1,5e-06
3909,3.909,1,5e-06
3910,3.91,1,5e-06
3911,3.911,1,5e-06
3912,3.912,2,1e-05
3913,3.913,2,1e-05
3914,3.914,2,1e-05
3915,3.915,2,1e-05
3916,3.916,2,1e-05
3917,3.917,2,1e-05
3918,3.918,2,1e-05
3919,3.919,2,1e-05
3920,3.92,2,1e-05
3921,3.921,2,1e-05
3922,3.922,2,1e-05
3923,3.923,2,1e-05
3924,3.924,2,1e-05
3925,3.925,2,1e-05
3926,3.926,2,1e-05
3927,3.927,2,1e-05
3928,3.928,2,1e-05
3929,3.929,2,1e-05
3930,3.93,2,1e-05
3931,3.931,2,1e-05
3932,3.932,1,5e-06
3933,3.933,1,5e-06
3934,3.934,0,0.0
3935,3.935,0,0.0
3936,3.936,-1,-5e-06
3937,3.937,-1,-5e-06
3938,3.938,-2,-1e-05
3939,3.939,-2,-1e-05
3940,3.94,-1,-5e-06
3941,3.941,-1,-5e-06
3942,3.942,-1,-5e-06
3943,3.943,-1,-5e-06
3944,3.944,0,0.0
3945,3.945,0,0.0
3946,3.946,0,0.0
3947,3.947,1,5e-06
3948,3.948,1,5e-06
3949,3.949,2,1e-05
3950,3.95,2,1e-05
3951,3.951,3,1.5e-05
3952,3.952,3,1.5e-05
3953,3.953,4,2e-05
3954,3.954,4,2e-05
3955,3.955,4,2e-05
3956,3.956,4,2e-05
3957,3.957,4,2e-05
3958,3.958,4,2e-05
3959,3.959,4,2e-05
3960,3.96,4,2e-05
3961,3.961,4,2e-05
3962,3.962,4,2e-05
3963,3.963,4,2e-05
3964,3.964,4,2e-05
3965,3.965,3,1.5e-05
3966,3.966,3,1.5e-05
3967,3.967,3,1.5e-05
3968,3.968,2,1e-05
3969,3.969,2,1e-05
3970,3.97,2,1e-05
3971,3.971,2,1e-05
3972,3.972,2,1e-05
3973,3.973,2,1e-05
3974,3.974,2,1e-05
3975,3.975,2,1e-05
3976,3.976,2,1e-05
3977,3.977,2,1e-05
3978,3.978,3,1.5e-05
3979,3.979,4,2e-05
3980,3.98,4,2e-05
3981,3.981,5,2.5e-05
3982,3.982,6,3e-05
3983,3.983,7,3.5e-05
3984,3.984,8,4e-05
3985,3.985,8,4e-05
3986,3.986,8,4e-05
3987,3.987,8,4e-05
3988,3.988,8,4e-05
3989,3.989,8,4e-05
3990,3.99,8,4e-05
3991,3.991,8,4e-05
3992,3.992,8,4e-05
3993,3.993,8,4e-05
3994,3.994,9,4.5e-05
3995,3.995,9,4.5e-05
3996,3.996,9,4.5e-05
3997,3.997,9,4.5e-05
3998,3.998,10,5e-05
3999,3.999,10,5e-05
4000,4.0,10,5e-05
4001,4.001,10,5e-05
4002,4.002,11,5.5e-05
4003,4.003,11,5.5e-05
4004,4.004,12,6e-05
4005,4.005,13,6.5e-05
4006,4.006,13,6.5e-05
4007,4.007,14,7e-05
4008,4.008,14,7e-05
4009,4.009,14,7e-05
4010,4.01,14,7e-05
4011,4.011,14,7e-05
4012,4.012,14,7e-05
4013,4.013,14,7e-05
4014,4.014,14,7e-05
4015,4.015,14,7e-05
4016,4.016,14,7e-05
4017,4.017,14,7e-05
4018,4.018,15,7.5e-05
4019,4.019,15,7.5e-05
4020,4.02,15,7.5e-05
4021,4.021,15,7.5e-05
4022,4.022,16,8e-05
4023,4.023,16,8e-05
4024,4.024,16,8e-05
4025,4.025,17,8.5e-05
4026,4.026,17,8.5e-05
4027,4.027,18,9e-05
4028,4.028,18,9e-05
4029,4.029,19,9.5e-05
4030,4.03,19,9.5e-05
4031,4.031,20,0.0001
4032,4.032,20,0.0001
4033,4.033,20,0.0001
4034,4.034,20,0.0001
4035,4.035,20,0.0001
4036,4.036,20,0.0001
4037,4.037,20,0.0001
4038,4.038,20,0.0001
4039,4.039,20,0.0001
4040,4.04,20,0.0001
4041,4.041,21,0.000105
4042,4.042,21,0.000105
4043,4.043,22,0.00011
4044,4.044,22,0.00011
4045,4.045,23,0.000115
4046,4.046,23,0.000115
4047,4.047,24,0.00012
4048,4.048,24,0.00012
4049,4.049,25,0.000125
4050,4.05,25,0.000125
4051,4.051,25,0.000125
4052,4.052,25,0.000125
4053,4.053,26,0.00013
4054,4.054,26,0.00013
4055,4.055,26,0.00013
4056,4.056,27,0.000135
4057,4.057,28,0.00014
4058,4.058,28,0.00014
4059,4.059,29,0.000145
4060,4.06,30,0.00015
4061,4.061,31,0.000155
4062,4.062,31,0.000155
4063,4.063,32,0.00016
4064,4.064,34,0.00017
4065,4.065,35,0.000175
4066,4.066,36,0.00018
4067,4.067,37,0.000185
4068,4.068,39,0.000195
4069,4.069,40,0.0002
4070,4.07,41,0.000205
4071,4.071,42,0.00021
4072,4.072,42,0.00021
4073,4.073,43,0.000215
4074,4.074,43,0.000215
4075,4.075,43,0.000215
4076,4.076,44,0.00022
4077,4.077,44,0.00022
4078,4.078,44,0.00022
4079,4.079,44,0.00022
4080,4.08,45,0.000225
4081,4.081,45,0.000225
4082,4.082,45,0.000225
4083,4.083,45,0.000225
4084,4.084,46,0.00023
4085,4.085,46,0.00023
4086,4.086,46,0.00023
4087,4.087,47,0.000235
4088,4.088,47,0.000235
4089,4.089,48,0.00024
4090,4.09,49,0.000245
4091,4.091,50,0.00025
4092,4.092,50,0.00025
4093,4.093,51,0.000255
4094,4.094,52,0.00026
4095,4.095,53,0.000265
4096,4.096,53,0.000265
4097,4.097,54,0.00027
4098,4.098,54,0.00027
4099,4.099,55,0.000275
4100,4.1,55,0.000275
4101,4.101,56,0.00028
4102,4.102,56,0.00028
4103,4.103,57,0.000285
4104,4.104,59,0.000295
4105,4.105,60,0.0003
4106,4.106,61,0.000305
4107,4.107,63,0.000315
4108,4.108,64,0.00032
4109,4.109,65,0.000325
4110,4.11,66,0.00033
4111,4.111,68,0.00034
4112,4.112,69,0.000345
4113,4.113,71,0.000355
4114,4.114,73,0.000365
4115,4.115,74,0.00037
4116,4.116,76,0.00038
4117,4.117,77,0.000385
4118,4.118,78,0.00039
4119,4.119,79,0.000395
4120,4.12,80,0.0004
4121,4.121,81,0.000405
4122,4.122,82,0.00041
4123,4.123,82,0.00041
4124,4.124,83,0.000415
4125,4.125,84,0.00042
4126,4.126,85,0.000425
4127,4.127,86,0.00043
4128,4.128,87,0.000435
4129,4.129,89,0.000445
4130,4.13,90,0.00045
4131,4.131,91,0.000455
4132,4.132,93,0.000465
4133,4.133,94,0.00047
4134,4.134,95,0.000475
4135,4.135,96,0.00048
4136,4.136,97,0.000485
4137,4.137,98,0.00049
4138,4.138,99,0.000495
4139,4.139,100,0.0005
4140,4.14,101,0.000505
4141,4.141,102,0.00051
4142,4.142,103,0.000515
4143,4.143,104,0.00052
4144,4.144,104,0.00052
4145,4.145,105,0.000525
4146,4.146,106,0.00053
4147,4.147,107,0.000535
4148,4.148,107,0.000535
4149,4.149,108,0.00054
4150,4.15,109,0.000545
4151,4.151,110,0.00055
4152,4.152,111,0.000555
4153,4.153,111,0.000555
4154,4.154,112,0.00056
4155,4.155,113,0.000565
4156,4.156,114,0.00057
4157,4.157,114,0.00057
4158,4.158,114,0.00057
4159,4.159,114,0.00057
4160,4.16,114,0.00057
4161,4.161,114,0.00057
4162,4.162,114,0.00057
4163,4.163,114,0.00057
4164,4.164,114,0.00057
4165,4.165,114,0.00057
4166,4.166,114,0.00057
4167,4.167,114,0.00057
4168,4.168,113,0.000565
4169,4.169,113,0.000565
4170,4.17,113,0.000565
4171,4.171,113,0.000565
4172,4.172,112,0.00056
4173,4.173,112,0.00056
4174,4.174,111,0.000555
4175,4.175,110,0.00055
4176,4.176,109,0.000545
4177,4.177,109,0.000545
4178,4.178,108,0.00054
4179,4.179,107,0.000535
4180,4.18,106,0.00053
4181,4.181,104,0.00052
4182,4.182,102,0.00051
4183,4.183,100,0.0005
4184,4.184,98,0.00049
4185,4.185,96,0.00048
4186,4.186,94,0.00047
4187,4.187,92,0.00046
4188,4.188,90,0.00045
4189,4.189,88,0.00044
4190,4.19,87,0.000435
4191,4.191,85,0.000425
4192,4.192,83,0.000415
4193,4.193,81,0.000405
4194,4.194,79,0.000395
4195,4.195,78,0.00039
4196,4.196,76,0.00038
4197,4.197,74,0.00037
4198,4.198,73,0.000365
4199,4.199,71,0.000355
4200,4.2,70,0.00035
4201,4.201,68,0.00034
4202,4.202,67,0.000335
4203,4.203,65,0.000325
4204,4.204,63,0.000315
4205,4.205,61,0.000305
4206,4.206,59,0.000295
4207,4.207,57,0.000285
4208,4.208,55,0.000275
4209,4.209,53,0.000265
4210,4.21,51,0.000255
4211,4.211,49,0.000245
4212,4.212,47,0.000235
4213,4.213,45,0.000225
4214,4.214,43,0.000215
4215,4.215,41,0.000205
4216,4.216,39,0.000195
4217,4.217,37,0.000185
4218,4.218,35,0.000175
4219,4.219,33,0.000165
4220,4.22,32,0.00016
4221,4.221,31,0.000155
4222,4.222,30,0.00015
4223,4.223,29,0.000145
4224,4.224,29,0.000145
4225,4.225,28,0.00014
4226,4.226,27,0.000135
4227,4.227,26,0.00013
4228,4.228,25,0.000125
4229,4.229,24,0.00012
4230,4.23,22,0.00011
4231,4.231,21,0.000105
4232,4.232,20,0.0001
4233,4.233,19,9.5e-05
4234,4.234,17,8.5e-05
4235,4.235,16,8e-05
4236,4.236,16,8e-05
4237,4.237,16,8e-05
4238,4.238,15,7.5e-05
4239,4.239,15,7.5e-05
4240,4.24,15,7.5e-05
4241,4.241,15,7.5e-05
4242,4.242,14,7e-05
4243,4.243,14,7e-05
4244,4.244,13,6.5e-05
4245,4.245,12,6e-05
4246,4.246,12,6e-05
4247,4.247,11,5.5e-05
4248,4.248,10,5e-05
4249,4.249,9,4.5e-05
4250,4.25,9,4.5e-05
4251,4.251,8,4e-05
4252,4.252,7,3.5e-05
4253,4.253,7,3.5e-05
4254,4.254,6,3e-05
4255,4.255,6,3e-05
4256,4.256,5,2.5e-05
4257,4.257,5,2.5e-05
4258,4.258,4,2e-05
4259,4.259,4,2e-05
4260,4.26,5,2.5e-05
4261,4.261,5,2.5e-05
4262,4.262,5,2.5e-05
4263,4.263,5,2.5e-05
4264,4.264,6,3e-05
4265,4.265,6,3e-05
4266,4.266,6,3e-05
4267,4.267,6,3e-05
4268,4.268,5,2.5e-05
4269,4.269,5,2.5e-05
4270,4.27,4,2e-05
4271,4.271,4,2e-05
4272,4.272,3,1.5e-05
4273,4.273,3,1.5e-05
4274,4.274,2,1e-05
4275,4.275,2,1e-05
4276,4.276,2,1e-05
4277,4.277,1,5e-06
4278,4.278,1,5e-06
4279,4.279,1,5e-06
4280,4.28,1,5e-06
4281,4.281,0,0.0
4282,4.282,0,0.0
4283,4.283,1,5e-06
4284,4.284,1,5e-06
4285,4.285,2,1e-05
4286,4.286,2,1e-05
4287,4.287,3,1.5e-05
4288,4.288,3,1.5e-05
4289,4.289,4,2e-05
4290,4.29,4,2e-05
4291,4.291,4,2e-05
4292,4.292,4,2e-05
4293,4.293,3,1.5e-05
4294,4.294,3,1.5e-05
4295,4.295,3,1.5e-05
4296,4.296,3,1.5e-05
4297,4.297,2,1e-05
4298,4.298,2,1e-05
4299,4.299,2,1e-05
4300,4.3,2,1e-05
4301,4.301,2,1e-05
4302,4.302,2,1e-05
4303,4.303,2,1e-05
4304,4.304,2,1e-05
4305,4.305,2,1e-05
4306,4.306,2,1e-05
4307,4.307,2,1e-05
4308,4.308,2,1e-05
4309,4.309,2,1e-05
4310,4.31,2,1e-05
4311,4.311,2,1e-05
4312,4.312,2,1e-05
4313,4.313,2,1e-05
4314,4.314,2,1e-05
4315,4.315,2,1e-05
4316,4.316,1,5e-06
4317,4.317,1,5e-06
4318,4.318,1,5e-06
4319,4.319,1,5e-06
4320,4.32,0,0.0
4321,4.321,0,0.0
4322,4.322,1,5e-06
4323,4.323,1,5e-06
4324,4.324,2,1e-05
4325,4.325,2,1e-05
4326,4.326,3,1.5e-05
4327,4.327,3,1.5e-05
4328,4.328,4,2e-05
4329,4.329,4,2e-05
4330,4.33,4,2e-05
4331,4.331,4,2e-05
4332,4.332,3,1.5e-05
4333,4.333,3,1.5e-05
4334,4.334,3,1.5e-05
4335,4.335,3,1.5e-05
4336,4.336,2,1e-05
4337,4.337,2,1e-05
4338,4.338,2,1e-05
4339,4.339,2,1e-05
4340,4.34,1,5e-06
4341,4.341,1,5e-06
4342,4.342,1,5e-06
4343,4.343,0,0.0
4344,4.344,0,0.0
4345,4.345,1,5e-06
4346,4.346,1,5e-06
4347,4.347,2,1e-05
4348,4.348,2,1e-05
4349,4.349,3,1.5e-05
4350,4.35,3,1.5e-05
4351,4.351,4,2e-05
4352,4.352,4,2e-05
4353,4.353,3,1.5e-05
4354,4.354,3,1.5e-05
4355,4.355,2,1e-05
4356,4.356,1,5e-06
4357,4.357,0,0.0
4358,4.358,0,0.0
4359,4.359,-1,-5e-06
4360,4.36,-2,-1e-05
4361,4.361,-2,-1e-05
4362,4.362,-1,-5e-06
4363,4.363,-1,-5e-06
4364,4.364,-1,-5e-06
4365,4.365,-1,-5e-06
4366,4.366,0,0.0
4367,4.367,0,0.0
4368,4.368,0,0.0
4369,4.369,0,0.0
4370,4.37,0,0.0
4371,4.371,-1,-5e-06
4372,4.372,-1,-5e-06
4373,4.373,-1,-5e-06
4374,4.374,-1,-5e-06
4375,4.375,-2,-1e-05
4376,4.376,-2,-1e-05
4377,4.377,-2,-1e-05
4378,4.378,-2,-1e-05
4379,4.379,-2,-1e-05
4380,4.38,-2,-1e-05
4381,4.381,-2,-1e-05
4382,4.382,-2,-1e-05
4383,4.383,-2,-1e-05
4384,4.384,-2,-1e-05
4385,4.385,-1,-5e-06
4386,4.386,-1,-5e-06
4387,4.387,-1,-5e-06
4388,4.388,-1,-5e-06
4389,4.389,0,0.0
4390,4.39,0,0.0
4391,4.391,0,0.0
4392,4.392,0,0.0
4393,4.393,-1,-5e-06
4394,4.394,-1,-5e-06
4395,4.395,-2,-1e-05
4396,4.396,-2,-1e-05
4397,4.397,-3,-1.5e-05
4398,4.398,-3,-1.5e-05
4399,4.399,-4,-2e-05
4400,4.4,-4,-2e-05
4401,4.401,-4,-2e-05
4402,4.402,-4,-2e-05
4403,4.403,-4,-2e-05
4404,4.404,-4,-2e-05
4405,4.405,-4,-2e-05
4406,4.406,-4,-2e-05
4407,4.407,-4,-2e-05
4408,4.408,-3,-1.5e-05
4409,4.409,-3,-1.5e-05
4410,4.41,-3,-1.5e-05
4411,4.411,-3,-1.5e-05
4412,4.412,-2,-1e-05
4413,4.413,-2,-1e-05
4414,4.414,-2,-1e-05
4415,4.415,-2,-1e-05
4416,4.416,-3,-1.5e-05
4417,4.417,-3,-1.5e-05
4418,4.418,-4,-2e-05
4419,4.419,-4,-2e-05
4420,4.42,-5,-2.5e-05
4421,4.421,-5,-2.5e-05
4422,4.422,-6,-3e-05
4423,4.423,-6,-3e-05
4424,4.424,-5,-2.5e-05
4425,4.425,-5,-2.5e-05
4426,4.426,-5,-2.5e-05
4427,4.427,-5,-2.5e-05
4428,4.428,-4,-2e-05
4429,4.429,-4,-2e-05
4430,4.43,-4,-2e-05
4431,4.431,-4,-2e-05
4432,4.432,-5,-2.5e-05
4433,4.433,-5,-2.5e-05
4434,4.434,-6,-3e-05
4435,4.435,-6,-3e-05
4436,4.436,-7,-3.5e-05
4437,4.437,-7,-3.5e-05
4438,4.438,-8,-4e-05
4439,4.439,-7,-3.5e-05
4440,4.44,-7,-3.5e-05
4441,4.441,-6,-3e-05
4442,4.442,-6,-3e-05
4443,4.443,-5,-2.5e-05
4444,4.444,-5,-2.5e-05
4445,4.445,-4,-2e-05
4446,4.446,-4,-2e-05
4447,4.447,-4,-2e-05
4448,4.448,-4,-2e-05
4449,4.449,-5,-2.5e-05
4450,4.45,-5,-2.5e-05
4451,4.451,-5,-2.5e-05
4452,4.452,-5,-2.5e-05
4453,4.453,-6,-3e-05
4454,4.454,-6,-3e-05
4455,4.455,-6,-3e-05
4456,4.456,-6,-3e-05
4457,4.457,-6,-3e-05
4458,4.458,-6,-3e-05
4459,4.459,-6,-3e-05
4460,4.46,-6,-3e-05
4461,4.461,-6,-3e-05
4462,4.462,-6,-3e-05
4463,4.463,-6,-3e-05
4464,4.464,-6,-3e-05
4465,4.465,-7,-3.5e-05
4466,4.466,-7,-3.5e-05
4467,4.467,-7,-3.5e-05
4468,4.468,-7,-3.5e-05
4469,4.469,-8,-4e-05
4470,4.47,-8,-4e-05
4471,4.471,-8,-4e-05
4472,4.472,-8,-4e-05
4473,4.473,-8,-4e-05
4474,4.474,-8,-4e-05
4475,4.475,-8,-4e-05
4476,4.476,-8,-4e-05
4477,4.477,-8,-4e-05
4478,4.478,-8,-4e-05
4479,4.479,-8,-4e-05
4480,4.48,-9,-4.5e-05
4481,4.481,-9,-4.5e-05
4482,4.482,-9,-4.5e-05
4483,4.483,-9,-4.5e-05
4484,4.484,-10,-5e-05
4485,4.485,-10,-5e-05
4486,4.486,-10,-5e-05
4487,4.487,-9,-4.5e-05
4488,4.488,-9,-4.5e-05
4489,4.489,-9,-4.5e-05
4490,4.49,-9,-4.5e-05
4491,4.491,-8,-4e-05
4492,4.492,-8,-4e-05
4493,4.493,-8,-4e-05
4494,4.494,-8,-4e-05
4495,4.495,-8,-4e-05
4496,4.496,-8,-4e-05
4497,4.497,-8,-4e-05
4498,4.498,-8,-4e-05
4499,4.499,-8,-4e-05
4500,4.5,-8,-4e-05
4501,4.501,-8,-4e-05
4502,4.502,-7,-3.5e-05
4503,4.503,-7,-3.5e-05
4504,4.504,-7,-3.5e-05
4505,4.505,-7,-3.5e-05
4506,4.506,-6,-3e-05
4507,4.507,-6,-3e-05
4508,4.508,-6,-3e-05
4509,4.509,-6,-3e-05
4510,4.51,-6,-3e-05
4511,4.511,-7,-3.5e-05
4512,4.512,-7,-3.5e-05
4513,4.513,-7,-3.5e-05
4514,4.514,-7,-3.5e-05
4515,4.515,-8,-4e-05
4516,4.516,-8,-4e-05
4517,4.517,-8,-4e-05
4518,4.518,-8,-4e-05
4519,4.519,-8,-4e-05
4520,4.52,-8,-4e-05
4521,4.521,-8,-4e-05
4522,4.522,-8,-4e-05
4523,4.523,-8,-4e-05
4524,4.524,-8,-4e-05
4525,4.525,-8,-4e-05
4526,4.526,-8,-4e-05
4527,4.527,-8,-4e-05
4528,4.528,-8,-4e-05
4529,4.529,-8,-4e-05
4530,4.53,-8,-4e-05
4531,4.531,-8,-4e-05
4532,4.532,-8,-4e-05
4533,4.533,-8,-4e-05
4534,4.534,-9,-4.5e-05
4535,4.535,-9,-4.5e-05
4536,4.536,-10,-5e-05
4537,4.537,-10,-5e-05
4538,4.538,-11,-5.5e-05
4539,4.539,-12,-6e-05
4540,4.54,-12,-6e-05
4541,4.541,-11,-5.5e-05
4542,4.542,-11,-5.5e-05
4543,4.543,-10,-5e-05
4544,4.544,-10,-5e-05
4545,4.545,-9,-4.5e-05
4546,4.546,-9,-4.5e-05
4547,4.547,-8,-4e-05
4548,4.548,-8,-4e-05
4549,4.549,-8,-4e-05
4550,4.55,-8,-4e-05
4551,4.551,-8,-4e-05
4552,4.552,-8,-4e-05
4553,4.553,-8,-4e-05
4554,4.554,-8,-4e-05
4555,4.555,-8,-4e-05
4556,4.556,-8,-4e-05
4557,4.557,-8,-4e-05
4558,4.558,-8,-4e-05
4559,4.559,-8,-4e-05
4560,4.56,-8,-4e-05
4561,4.561,-8,-4e-05
4562,4.562,-8,-4e-05
4563,4.563,-8,-4e-05
4564,4.564,-8,-4e-05
4565,4.565,-7,-3.5e-05
4566,4.566,-7,-3.5e-05
4567,4.567,-7,-3.5e-05
4568,4.568,-7,-3.5e-05
4569,4.569,-6,-3e-05
4570,4.57,-6,-3e-05
4571,4.571,-6,-3e-05
4572,4.572,-6,-3e-05
4573,4.573,-6,-3e-05
4574,4.574,-6,-3e-05
4575,4.575,-6,-3e-05
4576,4.576,-6,-3e-05
4577,4.577,-6,-3e-05
4578,4.578,-6,-3e-05
4579,4.579,-6,-3e-05
4580,4.58,-6,-3e-05
4581,4.581,-6,-3e-05
4582,4.582,-7,-3.5e-05
4583,4.583,-7,-3.5e-05
4584,4.584,-7,-3.5e-05
4585,4.585,-7,-3.5e-05
4586,4.586,-8,-4e-05
4587,4.587,-8,-4e-05
4588,4.588,-7,-3.5e-05
4589,4.589,-7,-3.5e-05
4590,4.59,-7,-3.5e-05
4591,4.591,-7,-3.5e-05
4592,4.592,-6,-3e-05
4593,4.593,-6,-3e-05
4594,4.594,-6,-3e-05
4595,4.595,-6,-3e-05
4596,4.596,-7,-3.5e-05
4597,4.597,-7,-3.5e-05
4598,4.598,-8,-4e-05
4599,4.599,-8,-4e-05
4600,4.6,-9,-4.5e-05
4601,4.601,-9,-4.5e-05
4602,4.602,-10,-5e-05
4603,4.603,-10,-5e-05
4604,4.604,-9,-4.5e-05
4605,4.605,-9,-4.5e-05
4606,4.606,-9,-4.5e-05
4607,4.607,-9,-4.5e-05
4608,4.608,-8,-4e-05
4609,4.609,-8,-4e-05
4610,4.61,-8,-4e-05
4611,4.611,-8,-4e-05
4612,4.612,-7,-3.5e-05
4613,4.613,-7,-3.5e-05
4614,4.614,-7,-3.5e-05
4615,4.615,-7,-3.5e-05
4616,4.616,-6,-3e-05
4617,4.617,-6,-3e-05
4618,4.618,-6,-3e-05
4619,4.619,-6,-3e-05
4620,4.62,-6,-3e-05
4621,4.621,-6,-3e-05
4622,4.622,-6,-3e-05
4623,4.623,-6,-3e-05
4624,4.624,-6,-3e-05
4625,4.625,-6,-3e-05
4626,4.626,-6,-3e-05
4627,4.627,-6,-3e-05
4628,4.628,-6,-3e-05
4629,4.629,-6,-3e-05
4630,4.63,-6,-3e-05
4631,4.631,-6,-3e-05
4632,4.632,-6,-3e-05
4633,4.633,-6,-3e-05
4634,4.634,-5,-2.5e-05
4635,4.635,-5,-2.5e-05
4636,4.636,-4,-2e-05
4637,4.637,-4,-2e-05
4638,4.638,-3,-1.5e-05
4639,4.639,-3,-1.5e-05
4640,4.64,-2,-1e-05
4641,4.641,-2,-1e-05
4642,4.642,-2,-1e-05
4643,4.643,-2,-1e-05
4644,4.644,-3,-1.5e-05
4645,4.645,-3,-1.5e-05
4646,4.646,-3,-1.5e-05
4647,4.647,-3,-1.5e-05
4648,4.648,-4,-2e-05
4649,4.649,-4,-2e-05
4650,4.65,-4,-2e-05
4651,4.651,-4,-2e-05
4652,4.652,-4,-2e-05
4653,4.653,-4,-2e-05
4654,4.654,-4,-2e-05
4655,4.655,-4,-2e-05
4656,4.656,-4,-2e-05
4657,4.657,-4,-2e-05
4658,4.658,-4,-2e-05
4659,4.659,-4,-2e-05
4660,4.66,-5,-2.5e-05
4661,4.661,-5,-2.5e-05
4662,4.662,-5,-2.5e-05
4663,4.663,-5,-2.5e-05
4664,4.664,-6,-3e-05
4665,4.665,-6,-3e-05
4666,4.666,-5,-2.5e-05
4667,4.667,-5,-2.5e-05
4668,4.668,-5,-2.5e-05
4669,4.669,-5,-2.5e-05
4670,4.67,-4,-2e-05
4671,4.671,-4,-2e-05
4672,4.672,-4,-2e-05
4673,4.673,-4,-2e-05
4674,4.674,-3,-1.5e-05
4675,4.675,-3,-1.5e-05
4676,4.676,-3,-1.5e-05
4677,4.677,-3,-1.5e-05
4678,4.678,-2,-1e-05
4679,4.679,-2,-1e-05
4680,4.68,-2,-1e-05
4681,4.681,-2,-1e-05
4682,4.682,-2,-1e-05
4683,4.683,-3,-1.5e-05
4684,4.684,-3,-1.5e-05
4685,4.685,-3,-1.5e-05
4686,4.686,-3,-1.5e-05
4687,4.687,-4,-2e-05
4688,4.688,-4,-2e-05
4689,4.689,-3,-1.5e-05
4690,4.69,-3,-1.5e-05
4691,4.691,-2,-1e-05
4692,4.692,-2,-1e-05
4693,4.693,-1,-5e-06
4694,4.694,-1,-5e-06
4695,4.695,0,0.0
4696,4.696,0,0.0
4697,4.697,0,0.0
4698,4.698,0,0.0
4699,4.699,-1,-5e-06
4700,4.7,-1,-5e-06
4701,4.701,-1,-5e-06
4702,4.702,-1,-5e-06
4703,4.703,-2,-1e-05
4704,4.704,-2,-1e-05
4705,4.705,-2,-1e-05
4706,4.706,-2,-1e-05
4707,4.707,-3,-1.5e-05
4708,4.708,-3,-1.5e-05
4709,4.709,-3,-1.5e-05
4710,4.71,-3,-1.5e-05
4711,4.711,-4,-2e-05
4712,4.712,-4,-2e-05
4713,4.713,-3,-1.5e-05
4714,4.714,-3,-1.5e-05
4715,4.715,-2,-1e-05
4716,4.716,-2,-1e-05
4717,4.717,-1,-5e-06
4718,4.718,0,0.0
4719,4.719,0,0.0
4720,4.72,1,5e-06
4721,4.721,2,1e-05
4722,4.722,4,2e-05
4723,4.723,5,2.5e-05
4724,4.724,6,3e-05
4725,4.725,7,3.5e-05
4726,4.726,9,4.5e-05
4727,4.727,10,5e-05
4728,4.728,12,6e-05
4729,4.729,13,6.5e-05
4730,4.73,15,7.5e-05
4731,4.731,16,8e-05
4732,4.732,18,9e-05
4733,4.733,19,9.5e-05
4734,4.734,21,0.000105
4735,4.735,22,0.00011
4736,4.736,23,0.000115
4737,4.737,24,0.00012
4738,4.738,25,0.000125
4739,4.739,26,0.00013
4740,4.74,27,0.000135
4741,4.741,28,0.00014
4742,4.742,29,0.000145
4743,4.743,30,0.00015
4744,4.744,28,0.00014
4745,4.745,27,0.000135
4746,4.746,25,0.000125
4747,4.747,24,0.00012
4748,4.748,22,0.00011
4749,4.749,21,0.000105
4750,4.75,19,9.5e-05
4751,4.751,18,9e-05
4752,4.752,17,8.5e-05
4753,4.753,16,8e-05
4754,4.754,16,8e-05
4755,4.755,15,7.5e-05
4756,4.756,14,7e-05
4757,4.757,13,6.5e-05
4758,4.758,12,6e-05
4759,4.759,12,6e-05
4760,4.76,11,5.5e-05
4761,4.761,11,5.5e-05
4762,4.762,10,5e-05
4763,4.763,10,5e-05
4764,4.764,9,4.5e-05
4765,4.765,9,4.5e-05
4766,4.766,8,4e-05
4767,4.767,8,4e-05
4768,4.768,7,3.5e-05
4769,4.769,7,3.5e-05
4770,4.77,6,3e-05
4771,4.771,6,3e-05
4772,4.772,5,2.5e-05
4773,4.773,5,2.5e-05
4774,4.774,4,2e-05
4775,4.775,3,1.5e-05
4776,4.776,3,1.5e-05
4777,4.777,2,1e-05
4778,4.778,1,5e-06
4779,4.779,0,0.0
4780,4.78,0,0.0
4781,4.781,-1,-5e-06
4782,4.782,-2,-1e-05
4783,4.783,-2,-1e-05
4784,4.784,-2,-1e-05
4785,4.785,-2,-1e-05
4786,4.786,-2,-1e-05
4787,4.787,-2,-1e-05
4788,4.788,-2,-1e-05
4789,4.789,-2,-1e-05
4790,4.79,-2,-1e-05
4791,4.791,-2,-1e-05
4792,4.792,-2,-1e-05
4793,4.793,-3,-1.5e-05
4794,4.794,-3,-1.5e-05
4795,4.795,-3,-1.5e-05
4796,4.796,-3,-1.5e-05
4797,4.797,-4,-2e-05
4798,4.798,-4,-2e-05
4799,4.799,-4,-2e-05
4800,4.8,-4,-2e-05
4801,4.801,-4,-2e-05
4802,4.802,-4,-2e-05
4803,4.803,-4,-2e-05
4804,4.804,-4,-2e-05
4805,4.805,-4,-2e-05
4806,4.806,-4,-2e-05
4807,4.807,-4,-2e-05
4808,4.808,-5,-2.5e-05
4809,4.809,-5,-2.5e-05
4810,4.81,-5,-2.5e-05
4811,4.811,-5,-2.5e-05
4812,4.812,-6,-3e-05
4813,4.813,-6,-3e-05
4814,4.814,-6,-3e-05
4815,4.815,-5,-2.5e-05
4816,4.816,-5,-2.5e-05
4817,4.817,-5,-2.5e-05
4818,4.818,-5,-2.5e-05
4819,4.819,-4,-2e-05
4820,4.82,-4,-2e-05
4821,4.821,-4,-2e-05
4822,4.822,-4,-2e-05
4823,4.823,-3,-1.5e-05
4824,4.824,-3,-1.5e-05
4825,4.825,-3,-1.5e-05
4826,4.826,-3,-1.5e-05
4827,4.827,-2,-1e-05
4828,4.828,-2,-1e-05
4829,4.829,-2,-1e-05
4830,4.83,-2,-1e-05
4831,4.831,-2,-1e-05
4832,4.832,-3,-1.5e-05
4833,4.833,-3,-1.5e-05
4834,4.834,-3,-1.5e-05
4835,4.835,-3,-1.5e-05
4836,4.836,-4,-2e-05
4837,4.837,-4,-2e-05
4838,4.838,-4,-2e-05
4839,4.839,-4,-2e-05
4840,4.84,-5,-2.5e-05
4841,4.841,-5,-2.5e-05
4842,4.842,-5,-2.5e-05
4843,4.843,-5,-2.5e-05
4844,4.844,-6,-3e-05
4845,4.845,-5,-2.5e-05
4846,4.846,-5,-2.5e-05
4847,4.847,-4,-2e-05
4848,4.848,-3,-1.5e-05
4849,4.849,-2,-1e-05
4850,4.85,-1,-5e-06
4851,4.851,-1,-5e-06
4852,4.852,0,0.0
4853,4.853,0,0.0
4854,4.854,-1,-5e-06
4855,4.855,-1,-5e-06
4856,4.856,-2,-1e-05
4857,4.857,-2,-1e-05
4858,4.858,-3,-1.5e-05
4859,4.859,-3,-1.5e-05
4860,4.86,-4,-2e-05
4861,4.861,-3,-1.5e-05
4862,4.862,-2,-1e-05
4863,4.863,-1,-5e-06
4864,4.864,0,0.0
4865,4.865,1,5e-06
4866,4.866,2,1e-05
4867,4.867,3,1.5e-05
4868,4.868,4,2e-05
4869,4.869,3,1.5e-05
4870,4.87,2,1e-05
4871,4.871,2,1e-05
4872,4.872,1,5e-06
4873,4.873,0,0.0
4874,4.874,-1,-5e-06
4875,4.875,-1,-5e-06
4876,4.876,-4,-2e-05
4877,4.877,-8,-4e-05
4878,4.878,-12,-6e-05
4879,4.879,-17,-8.5e-05
4880,4.88,-21,-0.000105
4881,4.881,-26,-0.00013
4882,4.882,-30,-0.00015
4883,4.883,-34,-0.00017
4884,4.884,-35,-0.000175
4885,4.885,-35,-0.000175
4886,4.886,-34,-0.00017
4887,4.887,-34,-0.00017
4888,4.888,-33,-0.000165
4889,4.889,-33,-0.000165
4890,4.89,-32,-0.00016
4891,4.891,-32,-0.00016
4892,4.892,-24,-0.00012
4893,4.893,-14,-7e-05
4894,4.894,-4,-2e-05
4895,4.895,5,2.5e-05
4896,4.896,15,7.5e-05
4897,4.897,25,0.000125
4898,4.898,35,0.000175
4899,4.899,44,0.00022
4900,4.9,66,0.00033
4901,4.901,87,0.000435
4902,4.902,109,0.000545
4903,4.903,130,0.00065
4904,4.904,152,0.00076
4905,4.905,173,0.000865
4906,4.906,195,0.000975
4907,4.907,217,0.001085
4908,4.908,242,0.00121
4909,4.909,267,0.001335
4910,4.91,292,0.00146
4911,4.911,317,0.001585
4912,4.912,342,0.00171
4913,4.913,368,0.00184
4914,4.914,393,0.001965
4915,4.915,400,0.002
4916,4.916,379,0.001895
4917,4.917,358,0.00179
4918,4.918,337,0.001685
4919,4.919,316,0.00158
4920,4.92,295,0.001475
4921,4.921,274,0.00137
4922,4.922,253,0.001265
4923,4.923,226,0.00113
4924,4.924,194,0.00097
4925,4.925,161,0.000805
4926,4.926,129,0.000645
4927,4.927,97,0.000485
4928,4.928,65,0.000325
4929,4.929,32,0.00016
4930,4.93,0,0.0
4931,4.931,-15,-7.5e-05
4932,4.932,-25,-0.000125
4933,4.933,-35,-0.000175
4934,4.934,-44,-0.00022
4935,4.935,-54,-0.00027
4936,4.936,-64,-0.00032
4937,4.937,-74,-0.00037
4938,4.938,-83,-0.000415
4939,4.939,-81,-0.000405
4940,4.94,-79,-0.000395
4941,4.941,-76,-0.00038
4942,4.942,-74,-0.00037
4943,4.943,-71,-0.000355
4944,4.944,-69,-0.000345
4945,4.945,-66,-0.00033
4946,4.946,-63,-0.000315
4947,4.947,-58,-0.00029
4948,4.948,-53,-0.000265
4949,4.949,-48,-0.00024
4950,4.95,-43,-0.000215
4951,4.951,-38,-0.00019
4952,4.952,-32,-0.00016
4953,4.953,-27,-0.000135
4954,4.954,-23,-0.000115
4955,4.955,-20,-0.0001
4956,4.956,-17,-8.5e-05
4957,4.957,-14,-7e-05
4958,4.958,-11,-5.5e-05
4959,4.959,-8,-4e-05
4960,4.96,-4,-2e-05
4961,4.961,-1,-5e-06
4962,4.962,0,0.0
4963,4.963,0,0.0
4964,4.964,0,0.0
4965,4.965,0,0.0
4966,4.966,0,0.0
4967,4.967,0,0.0
4968,4.968,0,0.0
4969,4.969,0,0.0
4970,4.97,0,0.0
4971,4.971,0,0.0
4972,4.972,-1,-5e-06
4973,4.973,-1,-5e-06
4974,4.974,-1,-5e-06
4975,4.975,-1,-5e-06
4976,4.976,-2,-1e-05
4977,4.977,-2,-1e-05
4978,4.978,-2,-1e-05
4979,4.979,-3,-1.5e-05
4980,4.98,-3,-1.5e-05
4981,4.981,-4,-2e-05
4982,4.982,-4,-2e-05
4983,4.983,-5,-2.5e-05
4984,4.984,-5,-2.5e-05
4985,4.985,-6,-3e-05
4986,4.986,-5,-2.5e-05
4987,4.987,-5,-2.5e-05
4988,4.988,-4,-2e-05
4989,4.989,-4,-2e-05
4990,4.99,-3,-1.5e-05
4991,4.991,-3,-1.5e-05
4992,4.992,-2,-1e-05
4993,4.993,-2,-1e-05
4994,4.994,-2,-1e-05
4995,4.995,-2,-1e-05
4996,4.996,-2,-1e-05
4997,4.997,-2,-1e-05
4998,4.998,-2,-1e-05
4999,4.999,-2,-1e-05
5000,5.0,-2,-1e-05
5001,5.001,-2,-1e-05
5002,5.002,-2,-1e-05
5003,5.003,-2,-1e-05
5004,5.004,-2,-1e-05
5005,5.005,-2,-1e-05
5006,5.006,-2,-1e-05
5007,5.007,-2,-1e-05
5008,5.008,-2,-1e-05
5009,5.009,-2,-1e-05
5010,5.01,-1,-5e-06
5011,5.011,0,0.0
5012,5.012,0,0.0
5013,5.013,1,5e-06
5014,5.014,1,5e-06
5015,5.015,2,1e-05
5016,5.016,2,1e-05
5017,5.017,2,1e-05
5018,5.018,2,1e-05
5019,5.019,2,1e-05
5020,5.02,2,1e-05
5021,5.021,2,1e-05
5022,5.022,2,1e-05
5023,5.023,2,1e-05
5024,5.024,2,1e-05
5025,5.025,2,1e-05
5026,5.026,2,1e-05
5027,5.027,1,5e-06
5028,5.028,1,5e-06
5029,5.029,1,5e-06
5030,5.03,1,5e-06
5031,5.031,0,0.0
5032,5.032,0,0.0
5033,5.033,0,0.0
5034,5.034,1,5e-06
5035,5.035,1,5e-06
5036,5.036,1,5e-06
5037,5.037,2,1e-05
5038,5.038,2,1e-05
5039,5.039,2,1e-05
5040,5.04,2,1e-05
5041,5.041,3,1.5e-05
5042,5.042,3,1.5e-05
5043,5.043,3,1.5e-05
5044,5.044,3,1.5e-05
5045,5.045,4,2e-05
5046,5.046,4,2e-05
5047,5.047,4,2e-05
5048,5.048,4,2e-05
5049,5.049,5,2.5e-05
5050,5.05,5,2.5e-05
5051,5.051,5,2.5e-05
5052,5.052,5,2.5e-05
5053,5.053,6,3e-05
5054,5.054,6,3e-05
5055,5.055,6,3e-05
5056,5.056,6,3e-05
5057,5.057,7,3.5e-05
5058,5.058,7,3.5e-05
5059,5.059,7,3.5e-05
5060,5.06,7,3.5e-05
5061,5.061,8,4e-05
5062,5.062,8,4e-05
5063,5.063,8,4e-05
5064,5.064,8,4e-05
5065,5.065,8,4e-05
5066,5.066,8,4e-05
5067,5.067,8,4e-05
5068,5.068,8,4e-05
5069,5.069,8,4e-05
5070,5.07,8,4e-05
5071,5.071,8,4e-05
5072,5.072,8,4e-05
5073,5.073,9,4.5e-05
5074,5.074,9,4.5e-05
5075,5.075,9,4.5e-05
5076,5.076,9,4.5e-05
5077,5.077,10,5e-05
5078,5.078,10,5e-05
5079,5.079,10,5e-05
5080,5.08,11,5.5e-05
5081,5.081,11,5.5e-05
5082,5.082,12,6e-05
5083,5.083,12,6e-05
5084,5.084,13,6.5e-05
5085,5.085,13,6.5e-05
5086,5.086,14,7e-05
5087,5.087,14,7e-05
5088,5.088,15,7.5e-05
5089,5.089,15,7.5e-05
5090,5.09,15,7.5e-05
5091,5.091,15,7.5e-05
5092,5.092,16,8e-05
5093,5.093,16,8e-05
5094,5.094,16,8e-05
5095,5.095,16,8e-05
5096,5.096,17,8.5e-05
5097,5.097,17,8.5e-05
5098,5.098,17,8.5e-05
5099,5.099,17,8.5e-05
5100,5.1,18,9e-05
5101,5.101,18,9e-05
5102,5.102,18,9e-05
5103,5.103,18,9e-05
5104,5.104,18,9e-05
5105,5.105,17,8.5e-05
5106,5.106,17,8.5e-05
5107,5.107,17,8.5e-05
5108,5.108,17,8.5e-05
5109,5.109,16,8e-05
5110,5.11,16,8e-05
5111,5.111,17,8.5e-05
5112,5.112,18,9e-05
5113,5.113,19,9.5e-05
5114,5.114,20,0.0001
5115,5.115,21,0.000105
5116,5.116,22,0.00011
5117,5.117,23,0.000115
5118,5.118,24,0.00012
5119,5.119,25,0.000125
5120,5.12,25,0.000125
5121,5.121,26,0.00013
5122,5.122,26,0.00013
5123,5.123,27,0.000135
5124,5.124,27,0.000135
5125,5.125,28,0.00014
5126,5.126,28,0.00014
5127,5.127,29,0.000145
5128,5.128,29,0.000145
5129,5.129,30,0.00015
5130,5.13,30,0.00015
5131,5.131,31,0.000155
5132,5.132,31,0.000155
5133,5.133,32,0.00016
5134,5.134,33,0.000165
5135,5.135,33,0.000165
5136,5.136,34,0.00017
5137,5.137,35,0.000175
5138,5.138,36,0.00018
5139,5.139,36,0.00018
5140,5.14,37,0.000185
5141,5.141,38,0.00019
5142,5.142,39,0.000195
5143,5.143,40,0.0002
5144,5.144,40,0.0002
5145,5.145,41,0.000205
5146,5.146,42,0.00021
5147,5.147,43,0.000215
5148,5.148,43,0.000215
5149,5.149,44,0.00022
5150,5.15,45,0.000225
5151,5.151,45,0.000225
5152,5.152,46,0.00023
5153,5.153,46,0.00023
5154,5.154,47,0.000235
5155,5.155,47,0.000235
5156,5.156,48,0.00024
5157,5.157,48,0.00024
5158,5.158,49,0.000245
5159,5.159,50,0.00025
5160,5.16,51,0.000255
5161,5.161,52,0.00026
5162,5.162,53,0.000265
5163,5.163,54,0.00027
5164,5.164,56,0.00028
5165,5.165,56,0.00028
5166,5.166,57,0.000285
5167,5.167,57,0.000285
5168,5.168,58,0.00029
5169,5.169,58,0.00029
5170,5.17,59,0.000295
5171,5.171,59,0.000295
5172,5.172,60,0.0003
5173,5.173,61,0.000305
5174,5.174,63,0.000315
5175,5.175,64,0.00032
5176,5.176,66,0.00033
5177,5.177,67,0.000335
5178,5.178,69,0.000345
5179,5.179,70,0.00035
5180,5.18,72,0.00036
5181,5.181,73,0.000365
5182,5.182,74,0.00037
5183,5.183,75,0.000375
5184,5.184,76,0.00038
5185,5.185,77,0.000385
5186,5.186,78,0.00039
5187,5.187,79,0.000395
5188,5.188,80,0.0004
5189,5.189,81,0.000405
5190,5.19,83,0.000415
5191,5.191,84,0.00042
5192,5.192,85,0.000425
5193,5.193,86,0.00043
5194,5.194,88,0.00044
5195,5.195,89,0.000445
5196,5.196,90,0.00045
5197,5.197,91,0.000455
5198,5.198,92,0.00046
5199,5.199,93,0.000465
5200,5.2,94,0.00047
5201,5.201,95,0.000475
5202,5.202,96,0.00048
5203,5.203,97,0.000485
5204,5.204,98,0.00049
5205,5.205,99,0.000495
5206,5.206,101,0.000505
5207,5.207,102,0.00051
5208,5.208,103,0.000515
5209,5.209,104,0.00052
5210,5.21,105,0.000525
5211,5.211,106,0.00053
5212,5.212,106,0.00053
5213,5.213,107,0.000535
5214,5.214,107,0.000535
5215,5.215,108,0.00054
5216,5.216,108,0.00054
5217,5.217,109,0.000545
5218,5.218,109,0.000545
5219,5.219,110,0.00055
5220,5.22,111,0.000555
5221,5.221,111,0.000555
5222,5.222,112,0.00056
5223,5.223,112,0.00056
5224,5.224,113,0.000565
5225,5.225,113,0.000565
5226,5.226,114,0.00057
5227,5.227,114,0.00057
5228,5.228,113,0.000565
5229,5.229,112,0.00056
5230,5.23,111,0.000555
5231,5.231,110,0.00055
5232,5.232,109,0.000545
5233,5.233,108,0.00054
5234,5.234,107,0.000535
5235,5.235,106,0.00053
5236,5.236,104,0.00052
5237,5.237,103,0.000515
5238,5.238,101,0.000505
5239,5.239,99,0.000495
5240,5.24,97,0.000485
5241,5.241,95,0.000475
5242,5.242,94,0.00047
5243,5.243,92,0.00046
5244,5.244,90,0.00045
5245,5.245,88,0.00044
5246,5.246,86,0.00043
5247,5.247,85,0.000425
5248,5.248,83,0.000415
5249,5.249,81,0.000405
5250,5.25,79,0.000395
5251,5.251,77,0.000385
5252,5.252,76,0.00038
5253,5.253,74,0.00037
5254,5.254,72,0.00036
5255,5.255,70,0.00035
5256,5.256,68,0.00034
5257,5.257,67,0.000335
5258,5.258,65,0.000325
5259,5.259,63,0.000315
5260,5.26,61,0.000305
5261,5.261,60,0.0003
5262,5.262,58,0.00029
5263,5.263,56,0.00028
5264,5.264,54,0.00027
5265,5.265,52,0.00026
5266,5.266,51,0.000255
5267,5.267,49,0.000245
5268,5.268,47,0.000235
5269,5.269,44,0.00022
5270,5.27,42,0.00021
5271,5.271,40,0.0002
5272,5.272,38,0.00019
5273,5.273,36,0.00018
5274,5.274,34,0.00017
5275,5.275,33,0.000165
5276,5.276,32,0.00016
5277,5.277,30,0.00015
5278,5.278,29,0.000145
5279,5.279,28,0.00014
5280,5.28,27,0.000135
5281,5.281,25,0.000125
5282,5.282,24,0.00012
5283,5.283,22,0.00011
5284,5.284,21,0.000105
5285,5.285,19,9.5e-05
5286,5.286,18,9e-05
5287,5.287,16,8e-05
5288,5.288,15,7.5e-05
5289,5.289,13,6.5e-05
5290,5.29,12,6e-05
5291,5.291,12,6e-05
5292,5.292,12,6e-05
5293,5.293,11,5.5e-05
5294,5.294,11,5.5e-05
5295,5.295,11,5.5e-05
5296,5.296,11,5.5e-05
5297,5.297,10,5e-05
5298,5.298,10,5e-05
5299,5.299,9,4.5e-05
5300,5.3,8,4e-05
5301,5.301,7,3.5e-05
5302,5.302,7,3.5e-05
5303,5.303,6,3e-05
5304,5.304,5,2.5e-05
5305,5.305,4,2e-05
5306,5.306,4,2e-05
5307,5.307,4,2e-05
5308,5.308,3,1.5e-05
5309,5.309,3,1.5e-05
5310,5.31,3,1.5e-05
5311,5.311,3,1.5e-05
5312,5.312,2,1e-05
5313,5.313,2,1e-05
5314,5.314,3,1.5e-05
5315,5.315,3,1.5e-05
5316,5.316,4,2e-05
5317,5.317,4,2e-05
5318,5.318,5,2.5e-05
5319,5.319,5,2.5e-05
5320,5.32,6,3e-05
5321,5.321,6,3e-05
5322,5.322,6,3e-05
5323,5.323,5,2.5e-05
5324,5.324,5,2.5e-05
5325,5.325,4,2e-05
5326,5.326,4,2e-05
5327,5.327,3,1.5e-05
5328,5.328,3,1.5e-05
5329,5.329,2,1e-05
5330,5.33,2,1e-05
5331,5.331,2,1e-05
5332,5.332,1,5e-06
5333,5.333,1,5e-06
5334,5.334,1,5e-06
5335,5.335,1,5e-06
5336,5.336,0,0.0
5337,5.337,0,0.0
5338,5.338,0,0.0
5339,5.339,0,0.0
5340,5.34,0,0.0
5341,5.341,0,0.0
5342,5.342,0,0.0
5343,5.343,0,0.0
5344,5.344,0,0.0
5345,5.345,0,0.0
5346,5.346,0,0.0
5347,5.347,0,0.0
5348,5.348,-1,-5e-06
5349,5.349,-1,-5e-06
5350,5.35,-1,-5e-06
5351,5.351,-2,-1e-05
5352,5.352,-2,-1e-05
5353,5.353,-1,-5e-06
5354,5.354,-1,-5e-06
5355,5.355,0,0.0
5356,5.356,0,0.0
5357,5.357,1,5e-06
5358,5.358,1,5e-06
5359,5.359,2,1e-05
5360,5.36,2,1e-05
5361,5.361,2,1e-05
5362,5.362,2,1e-05
5363,5.363,2,1e-05
5364,5.364,2,1e-05
5365,5.365,2,1e-05
5366,5.366,2,1e-05
5367,5.367,2,1e-05
5368,5.368,2,1e-05
5369,5.369,2,1e-05
5370,5.37,3,1.5e-05
5371,5.371,3,1.5e-05
5372,5.372,3,1.5e-05
5373,5.373,4,2e-05
5374,5.374,4,2e-05
5375,5.375,4,2e-05
5376,5.376,4,2e-05
5377,5.377,4,2e-05
5378,5.378,4,2e-05
5379,5.379,4,2e-05
5380,5.38,4,2e-05
5381,5.381,4,2e-05
5382,5.382,4,2e-05
5383,5.383,4,2e-05
5384,5.384,4,2e-05
5385,5.385,4,2e-05
5386,5.386,4,2e-05
5387,5.387,3,1.5e-05
5388,5.388,3,1.5e-05
5389,5.389,3,1.5e-05
5390,5.39,2,1e-05
5391,5.391,2,1e-05
5392,5.392,2,1e-05
5393,5.393,2,1e-05
5394,5.394,2,1e-05
5395,5.395,2,1e-05
5396,5.396,2,1e-05
5397,5.397,2,1e-05
5398,5.398,2,1e-05
5399,5.399,2,1e-05
5400,5.4,2,1e-05
5401,5.401,3,1.5e-05
5402,5.402,3,1.5e-05
5403,5.403,3,1.5e-05
5404,5.404,3,1.5e-05
5405,5.405,4,2e-05
5406,5.406,4,2e-05
5407,5.407,4,2e-05
5408,5.408,4,2e-05
5409,5.409,3,1.5e-05
5410,5.41,3,1.5e-05
5411,5.411,2,1e-05
5412,5.412,2,1e-05
5413,5.413,1,5e-06
5414,5.414,1,5e-06
5415,5.415,0,0.0
5416,5.416,1,5e-06
5417,5.417,1,5e-06
5418,5.418,1,5e-06
5419,5.419,1,5e-06
5420,5.42,2,1e-05
5421,5.421,2,1e-05
5422,5.422,2,1e-05
5423,5.423,2,1e-05
5424,5.424,2,1e-05
5425,5.425,2,1e-05
5426,5.426,2,1e-05
5427,5.427,2,1e-05
5428,5.428,2,1e-05
5429,5.429,2,1e-05
5430,5.43,2,1e-05
5431,5.431,2,1e-05
5432,5.432,2,1e-05
5433,5.433,2,1e-05
5434,5.434,2,1e-05
5435,5.435,2,1e-05
5436,5.436,2,1e-05
5437,5.437,2,1e-05
5438,5.438,2,1e-05
5439,5.439,2,1e-05
5440,5.44,3,1.5e-05
5441,5.441,3,1.5e-05
5442,5.442,3,1.5e-05
5443,5.443,3,1.5e-05
5444,5.444,4,2e-05
5445,5.445,4,2e-05
5446,5.446,4,2e-05
5447,5.447,4,2e-05
5448,5.448,4,2e-05
5449,5.449,3,1.5e-05
5450,5.45,3,1.5e-05
5451,5.451,3,1.5e-05
5452,5.452,3,1.5e-05
5453,5.453,2,1e-05
5454,5.454,2,1e-05
5455,5.455,2,1e-05
5456,5.456,2,1e-05
